Cycles	Fluorescence	Sample 	genotype
1	-0.112021242	A1	N
2	-0.018217666	A1	N
3	0.015990694	A1	N
4	-0.02657712	A1	N
5	-0.029625091	A1	N
6	0.058429182	A1	N
7	-0.095765844	A1	N
8	-0.005205492	A1	N
9	0.00917911	A1	N
10	-0.059010488	A1	N
11	-0.002998257	A1	N
12	0.007646137	A1	N
13	0.00994046	A1	N
14	-0.040942067	A1	N
15	-0.043217437	A1	N
16	-0.042537853	A1	N
17	-0.043239684	A1	N
18	-0.0522925	A1	N
19	0.010656904	A1	N
20	0.022109428	A1	N
21	0.019903007	A1	N
22	-0.156371569	A1	N
23	-0.046263507	A1	N
24	-0.203990297	A1	N
25	-0.210435873	A1	N
26	-0.157113246	A1	N
27	-0.097987822	A1	N
28	-0.091231844	A1	N
29	0.021469082	A1	N
30	-0.029629051	A1	N
31	0.016020498	A1	N
32	-0.092669891	A1	N
33	0.195247566	A1	N
34	0.41164804	A1	N
35	0.974483009	A1	N
36	1.479131196	A1	N
37	2.095766235	A1	N
38	2.495590325	A1	N
39	2.70953026	A1	N
40	2.658306208	A1	N
1	-0.026898164	A2	N
2	0.00582583	A2	N
3	0.142927252	A2	N
4	-0.056849988	A2	N
5	-0.006359742	A2	N
6	-0.085543351	A2	N
7	-0.016879525	A2	N
8	-0.093379555	A2	N
9	-0.078390715	A2	N
10	-0.091054505	A2	N
11	0.015580516	A2	N
12	0.080366537	A2	N
13	0.082799386	A2	N
14	-0.072009749	A2	N
15	-0.020832635	A2	N
16	0.033354304	A2	N
17	-0.07444127	A2	N
18	0.022831838	A2	N
19	-0.023349419	A2	N
20	-0.011332531	A2	N
21	-0.120975753	A2	N
22	-0.128758506	A2	N
23	-0.024514969	A2	N
24	-0.119926747	A2	N
25	-0.234518132	A2	N
26	-0.184798663	A2	N
27	-0.075489316	A2	N
28	-0.068947266	A2	N
29	-0.123151817	A2	N
30	-0.11810028	A2	N
31	-0.075805614	A2	N
32	-0.286057008	A2	N
33	-0.065476944	A2	N
34	-0.181487273	A2	N
35	-0.074644714	A2	N
36	-0.236856246	A2	N
37	-0.185152306	A2	N
38	-0.127831676	A2	N
39	-0.24180732	A2	N
40	-0.238752975	A2	N
1	-0.164609795	A3	S2
2	0.018858919	A3	S2
3	-0.059321432	A3	S2
4	0.060273718	A3	S2
5	-0.098080904	A3	S2
6	0.078269698	A3	S2
7	-0.058292752	A3	S2
8	-0.084397739	A3	S2
9	-0.015978511	A3	S2
10	-0.081710052	A3	S2
11	-0.081705048	A3	S2
12	-0.017784196	A3	S2
13	0.036258953	A3	S2
14	-0.059973849	A3	S2
15	-0.114008317	A3	S2
16	0.040887999	A3	S2
17	0.142750153	A3	S2
18	-0.022286182	A3	S2
19	-0.065373024	A3	S2
20	0.205497985	A3	S2
21	0.305616015	A3	S2
22	0.295847268	A3	S2
23	0.908683789	A3	S2
24	1.645355016	A3	S2
25	2.970170423	A3	S2
26	4.709556053	A3	S2
27	6.771467522	A3	S2
28	8.488995868	A3	S2
29	9.878302935	A3	S2
30	10.92782268	A3	S2
31	11.45221412	A3	S2
32	11.31306688	A3	S2
33	11.49145892	A3	S2
34	11.66391765	A3	S2
35	11.86951337	A3	S2
36	11.60637334	A3	S2
37	11.75435054	A3	S2
38	11.82103024	A3	S2
39	11.69055786	A3	S2
40	11.59981142	A3	S2
1	-0.149463589	A4	N
2	-0.033080029	A4	N
3	0.028462581	A4	N
4	0.00243582	A4	N
5	0.047150264	A4	N
6	-0.044968636	A4	N
7	-0.119725138	A4	N
8	-0.057998339	A4	N
9	-0.132699064	A4	N
10	-0.103686368	A4	N
11	-0.103677075	A4	N
12	-0.185011926	A4	N
13	-0.131364012	A4	N
14	-0.271745858	A4	N
15	-0.425011603	A4	N
16	-0.224545515	A4	N
17	-0.175978762	A4	N
18	-0.290778445	A4	N
19	-0.478502218	A4	N
20	-0.210468522	A4	N
21	-0.363971868	A4	N
22	-0.426357641	A4	N
23	-0.330734221	A4	N
24	-0.511748227	A4	N
25	-0.672733045	A4	N
26	-0.429155849	A4	N
27	-0.424992911	A4	N
28	-0.46431129	A4	N
29	-0.514706519	A4	N
30	-0.506562064	A4	N
31	-0.573817634	A4	N
32	-0.567622219	A4	N
33	-0.458045626	A4	N
34	-0.571526616	A4	N
35	-0.471969545	A4	N
36	-0.374827575	A4	N
37	-0.277995961	A4	N
38	0.0274083	A4	N
39	0.513320037	A4	N
40	0.917522803	A4	N
1	-0.09802369	A5	N
2	0.07099848	A5	N
3	0.088496468	A5	N
4	-0.039039577	A5	N
5	-0.043344187	A5	N
6	-0.077111185	A5	N
7	-0.057053472	A5	N
8	-0.087643124	A5	N
9	-0.01877899	A5	N
10	-0.084393542	A5	N
11	-0.035719858	A5	N
12	-0.118457437	A5	N
13	-0.017691273	A5	N
14	-0.107880977	A5	N
15	-0.11106843	A5	N
16	-0.061179991	A5	N
17	-0.159963682	A5	N
18	-0.026084702	A5	N
19	-0.162949679	A5	N
20	-0.098479125	A5	N
21	-0.15044755	A5	N
22	-0.209643689	A5	N
23	-0.066301484	A5	N
24	-0.19722988	A5	N
25	-0.255350335	A5	N
26	-0.210636552	A5	N
27	-0.157707725	A5	N
28	-0.197227004	A5	N
29	-0.197177387	A5	N
30	-0.190016512	A5	N
31	-0.155602719	A5	N
32	-0.199198301	A5	N
33	-0.092994583	A5	N
34	0.188912039	A5	N
35	0.433266824	A5	N
36	1.017588329	A5	N
37	1.650129626	A5	N
38	2.243641875	A5	N
39	2.767185295	A5	N
40	3.017516699	A5	N
1	0.032293556	A6	N
2	0.14387961	A6	N
3	0.007840203	A6	N
4	-0.016974679	A6	N
5	-0.022286377	A6	N
6	-0.112458757	A6	N
7	-0.233437532	A6	N
8	-0.125409983	A6	N
9	-0.294682255	A6	N
10	-0.411302315	A6	N
11	-0.314706282	A6	N
12	-0.393951494	A6	N
13	-0.341863572	A6	N
14	-0.430009028	A6	N
15	-0.288306859	A6	N
16	-0.384035073	A6	N
17	-0.385254867	A6	N
18	-0.448562743	A6	N
19	-0.485888024	A6	N
20	-0.418949664	A6	N
21	-0.519822053	A6	N
22	-0.677545444	A6	N
23	-0.584513055	A6	N
24	-0.71260352	A6	N
25	-0.724023752	A6	N
26	-0.68136164	A6	N
27	-0.629464487	A6	N
28	-0.668321184	A6	N
29	-0.766572573	A6	N
30	-0.661855043	A6	N
31	-0.67915361	A6	N
32	-0.867681069	A6	N
33	-0.761405387	A6	N
34	-0.823159513	A6	N
35	-0.580700276	A6	N
36	-0.631901146	A6	N
37	-0.440675469	A6	N
38	-0.046485301	A6	N
39	0.280713382	A6	N
40	0.480069512	A6	N
1	0.079153506	B1	N
2	-0.051416489	B1	N
3	0.038012225	B1	N
4	-0.004030295	B1	N
5	-0.062371202	B1	N
6	0.079805761	B1	N
7	0.038751324	B1	N
8	-0.03753422	B1	N
9	0.086453808	B1	N
10	0.129484847	B1	N
11	0.074537065	B1	N
12	-0.025210555	B1	N
13	-0.078205168	B1	N
14	-0.073160771	B1	N
15	-0.020084027	B1	N
16	0.090960361	B1	N
17	0.090278609	B1	N
18	0.081250621	B1	N
19	0.143109687	B1	N
20	0.209847145	B1	N
21	-0.013589439	B1	N
22	-0.020767533	B1	N
23	0.032087672	B1	N
24	0.153833107	B1	N
25	0.091864193	B1	N
26	0.033706349	B1	N
27	0.091788096	B1	N
28	-0.067325099	B1	N
29	-0.067352064	B1	N
30	0.048459609	B1	N
31	0.148464508	B1	N
32	-0.013436691	B1	N
33	-0.007741704	B1	N
34	0.094609239	B1	N
35	0.149542431	B1	N
36	0.037381684	B1	N
37	0.03543503	B1	N
38	0.038798624	B1	N
39	-0.023160987	B1	N
40	-0.020366696	B1	N
1	-0.073132298	B2	N
2	-0.044295767	B2	N
3	0.03400631	B2	N
4	-0.054480329	B2	N
5	0.099843542	B2	N
6	-0.035073756	B2	N
7	0.140084283	B2	N
8	0.060322299	B2	N
9	0.025594701	B2	N
10	0.167613023	B2	N
11	0.010756258	B2	N
12	-0.028586217	B2	N
13	0.026567593	B2	N
14	0.138235785	B2	N
15	-0.022098165	B2	N
16	0.188753905	B2	N
17	0.030383794	B2	N
18	0.123925228	B2	N
19	0.132425518	B2	N
20	0.04143562	B2	N
21	0.143854	B2	N
22	-0.02319379	B2	N
23	0.183551679	B2	N
24	0.197643176	B2	N
25	0.083476446	B2	N
26	0.078907205	B2	N
27	0.081688536	B2	N
28	-0.015722728	B2	N
29	-0.016389674	B2	N
30	0.147607989	B2	N
31	0.081370447	B2	N
32	-0.018928484	B2	N
33	-0.011812494	B2	N
34	-0.074729858	B2	N
35	0.082526678	B2	N
36	-0.077250667	B2	N
37	0.130318523	B2	N
38	0.081799326	B2	N
39	-0.084487076	B2	N
40	-0.028784953	B2	N
1	-0.040702195	B3	S2
2	-0.012652306	B3	S2
3	0.063093708	B3	S2
4	0.028381489	B3	S2
5	-0.025686245	B3	S2
6	-0.053136646	B3	S2
7	-0.03688504	B3	S2
8	-0.111866376	B3	S2
9	-0.04546319	B3	S2
10	-0.059148048	B3	S2
11	-0.10927114	B3	S2
12	-0.198086917	B3	S2
13	-0.145266795	B3	S2
14	-0.189731337	B3	S2
15	-0.192167422	B3	S2
16	-0.141067389	B3	S2
17	-0.192238108	B3	S2
18	-0.151881282	B3	S2
19	-0.093988354	B3	S2
20	-0.030876674	B3	S2
21	-0.033485208	B3	S2
22	0.209747194	B3	S2
23	0.559045245	B3	S2
24	1.279937159	B3	S2
25	2.176523939	B3	S2
26	3.580592307	B3	S2
27	5.147877158	B3	S2
28	6.425271459	B3	S2
29	7.636085807	B3	S2
30	8.561247592	B3	S2
31	8.980605319	B3	S2
32	8.942798624	B3	S2
33	9.215443712	B3	S2
34	9.237651663	B3	S2
35	9.237441884	B3	S2
36	9.181859721	B3	S2
37	9.176330998	B3	S2
38	9.289741525	B3	S2
39	9.064986579	B3	S2
40	9.377307664	B3	S2
1	-0.117248217	B4	N
2	-0.003047077	B4	N
3	0.057280495	B4	N
4	-0.017326044	B4	N
5	0.02655299	B4	N
6	-0.063460365	B4	N
7	-0.039211211	B4	N
8	-0.027559725	B4	N
9	-0.100833405	B4	N
10	-0.12106219	B4	N
11	-0.169715857	B4	N
12	-0.054474924	B4	N
13	-0.246026001	B4	N
14	-0.237181055	B4	N
15	-0.191991058	B4	N
16	-0.141936304	B4	N
17	-0.240954844	B4	N
18	-0.353342271	B4	N
19	-0.293471272	B4	N
20	-0.22604904	B4	N
21	-0.376573378	B4	N
22	-0.242282165	B4	N
23	-0.392770225	B4	N
24	-0.27684533	B4	N
25	-0.337297447	B4	N
26	-0.440733077	B4	N
27	-0.339006747	B4	N
28	-0.328607529	B4	N
29	-0.476127349	B4	N
30	-0.27202106	B4	N
31	-0.338550183	B4	N
32	-0.430222854	B4	N
33	-0.371688199	B4	N
34	-0.483088204	B4	N
35	-0.385449311	B4	N
36	-0.485944375	B4	N
37	-0.342194904	B4	N
38	-0.434458797	B4	N
39	-0.445763242	B4	N
40	-0.441481487	B4	N
1	-0.056698954	B5	N
2	-0.030715255	B5	N
3	-0.007421923	B5	N
4	0.008076	B5	N
5	0.052688193	B5	N
6	-0.022627015	B5	N
7	0.137460857	B5	N
8	0.064324506	B5	N
9	0.080769838	B5	N
10	0.06698479	B5	N
11	0.019277259	B5	N
12	0.127053449	B5	N
13	0.081722851	B5	N
14	-0.007991271	B5	N
15	0.085361866	B5	N
16	0.038196168	B5	N
17	0.085366531	B5	N
18	0.075030068	B5	N
19	0.082824682	B5	N
20	0.095844251	B5	N
21	-0.002716783	B5	N
22	-0.011214029	B5	N
23	-0.013744975	B5	N
24	0.04713826	B5	N
25	0.039401938	B5	N
26	-0.01190483	B5	N
27	0.03931256	B5	N
28	-0.000860997	B5	N
29	-0.000831514	B5	N
30	0.101315206	B5	N
31	0.185041899	B5	N
32	-0.002494309	B5	N
33	0.052300324	B5	N
34	0.13865377	B5	N
35	0.330372148	B5	N
36	0.568104494	B5	N
37	1.045105458	B5	N
38	1.529829715	B5	N
39	1.806625737	B5	N
40	2.290586976	B5	N
1	-0.259732072	B6	N
2	-0.099259223	B6	N
3	-0.039139765	B6	N
4	-0.016987661	B6	N
5	0.121393346	B6	N
6	0.033993302	B6	N
7	0.105193567	B6	N
8	0.116491905	B6	N
9	0.187806634	B6	N
10	0.167801562	B6	N
11	0.025567919	B6	N
12	0.090408856	B6	N
13	0.236862885	B6	N
14	0.05535572	B6	N
15	0.146868809	B6	N
16	0.195762292	B6	N
17	0.146978607	B6	N
18	0.036954448	B6	N
19	0.095659315	B6	N
20	0.114372289	B6	N
21	0.062982267	B6	N
22	0.003044756	B6	N
23	-0.095917749	B6	N
24	-0.030219607	B6	N
25	0.053614008	B6	N
26	-0.142303325	B6	N
27	0.099610768	B6	N
28	-0.128806806	B6	N
29	-0.0348174	B6	N
30	0.020008648	B6	N
31	0.001488434	B6	N
32	-0.088441143	B6	N
33	0.016211236	B6	N
34	0.097508557	B6	N
35	0.335540178	B6	N
36	0.4279233	B6	N
37	1.044076328	B6	N
38	1.384426816	B6	N
39	1.703856205	B6	N
40	1.900297199	B6	N
1	0.152969492	C1	N
2	-0.036225854	C1	N
3	-0.06253385	C1	N
4	0.11802836	C1	N
5	0.059527107	C1	N
6	-0.078795764	C1	N
7	-0.007106053	C1	N
8	-0.033314426	C1	N
9	0.092753679	C1	N
10	0.077884207	C1	N
11	0.077949618	C1	N
12	-0.01790509	C1	N
13	-0.015291534	C1	N
14	-0.063483528	C1	N
15	-0.066139585	C1	N
16	-0.065288891	C1	N
17	-0.066139585	C1	N
18	0.031856482	C1	N
19	-0.014388749	C1	N
20	-0.055416511	C1	N
21	-0.003453622	C1	N
22	-0.06710405	C1	N
23	-0.069847958	C1	N
24	-0.111113473	C1	N
25	-0.173753055	C1	N
26	-0.231906849	C1	N
27	-0.119608583	C1	N
28	-0.056976875	C1	N
29	-0.057101995	C1	N
30	-0.269776419	C1	N
31	-0.118203093	C1	N
32	-0.222984753	C1	N
33	-0.161416204	C1	N
34	-0.116666897	C1	N
35	-0.171667621	C1	N
36	-0.228273677	C1	N
37	-0.121455	C1	N
38	-0.117718286	C1	N
39	-0.235216772	C1	N
40	-0.2866864	C1	N
1	-0.124789821	C2	N
2	0.008422143	C2	N
3	-0.070177495	C2	N
4	-0.001811028	C2	N
5	0.046509649	C2	N
6	0.017056731	C2	N
7	-0.069398142	C2	N
8	0.007895177	C2	N
9	0.128982564	C2	N
10	0.062179137	C2	N
11	0.062261705	C2	N
12	-0.028228339	C2	N
13	0.129900756	C2	N
14	0.08462046	C2	N
15	0.029981852	C2	N
16	-0.021043985	C2	N
17	-0.073733033	C2	N
18	-0.136497382	C2	N
19	-0.024737236	C2	N
20	0.040908398	C2	N
21	-0.013963227	C2	N
22	0.028624982	C2	N
23	-0.026414274	C2	N
24	-0.013425522	C2	N
25	-0.126388084	C2	N
26	-0.131253685	C2	N
27	-0.025419123	C2	N
28	-0.018400112	C2	N
29	-0.019480528	C2	N
30	-0.013643932	C2	N
31	0.077068397	C2	N
32	0.133584333	C2	N
33	0.453291307	C2	N
34	0.805765703	C2	N
35	1.740486688	C2	N
36	2.984076266	C2	N
37	4.693529202	C2	N
38	6.832009003	C2	N
39	8.523925075	C2	N
40	9.779285391	C2	N
1	-0.018653295	C3	S2
2	0.058270272	C3	S2
3	-0.067634967	C3	S2
4	0.048225684	C3	S2
5	0.04458499	C3	S2
6	-0.083445978	C3	S2
7	0.032889412	C3	S2
8	0.05666031	C3	S2
9	0.073731116	C3	S2
10	0.059271536	C3	S2
11	0.009679595	C3	S2
12	-0.027469177	C3	S2
13	0.024840706	C3	S2
14	-0.068516436	C3	S2
15	-0.021256101	C3	S2
16	-0.070228161	C3	S2
17	-0.071034395	C3	S2
18	0.017822214	C3	S2
19	0.025792668	C3	S2
20	0.18893727	C3	S2
21	0.335764843	C3	S2
22	0.425635711	C3	S2
23	1.069423871	C3	S2
24	1.78372251	C3	S2
25	3.167126183	C3	S2
26	4.902671131	C3	S2
27	6.752010507	C3	S2
28	8.616693665	C3	S2
29	10.06313733	C3	S2
30	10.83133406	C3	S2
31	11.23933944	C3	S2
32	11.40370579	C3	S2
33	11.52732726	C3	S2
34	11.64369668	C3	S2
35	11.4438555	C3	S2
36	11.58705156	C3	S2
37	11.67996763	C3	S2
38	11.5944644	C3	S2
39	11.56675389	C3	S2
40	11.57816484	C3	S2
1	-0.093334997	C4	N
2	-0.019881152	C4	N
3	0.050176942	C4	N
4	0.018419663	C4	N
5	-0.033812757	C4	N
6	-0.014902697	C4	N
7	0.050908417	C4	N
8	0.024085394	C4	N
9	0.041597857	C4	N
10	-0.021320902	C4	N
11	-0.021354501	C4	N
12	-0.00840102	C4	N
13	0.042596901	C4	N
14	0.000809338	C4	N
15	-0.098550781	C4	N
16	-0.146044715	C4	N
17	-0.098516694	C4	N
18	-0.157592631	C4	N
19	-0.052975267	C4	N
20	-0.087707838	C4	N
21	-0.1388755	C4	N
22	-0.051261892	C4	N
23	-0.054202943	C4	N
24	0.007539872	C4	N
25	-0.194705422	C4	N
26	-0.102369813	C4	N
27	-0.051339928	C4	N
28	-0.09234131	C4	N
29	-0.044426904	C4	N
30	-0.086921084	C4	N
31	-0.051454599	C4	N
32	-0.046876525	C4	N
33	0.057231105	C4	N
34	0.143694782	C4	N
35	0.385462182	C4	N
36	0.673518139	C4	N
37	1.299574761	C4	N
38	1.885642512	C4	N
39	2.40533605	C4	N
40	2.893825677	C4	N
1	0.070145155	C5	N
2	-0.00107993	C5	N
3	0.020867792	C5	N
4	-0.010691712	C5	N
5	0.033357704	C5	N
6	-0.042453854	C5	N
7	0.069221444	C5	N
8	0.04342979	C5	N
9	0.060256036	C5	N
10	-0.001117426	C5	N
11	0.046182625	C5	N
12	-0.083437241	C5	N
13	0.061354683	C5	N
14	0.020277938	C5	N
15	-0.124568207	C5	N
16	0.018647765	C5	N
17	-0.029571072	C5	N
18	-0.134717108	C5	N
19	-0.032207134	C5	N
20	-0.066498067	C5	N
21	-0.021554162	C5	N
22	-0.077653119	C5	N
23	-0.080167602	C5	N
24	-0.162209429	C5	N
25	-0.122335455	C5	N
26	-0.173081575	C5	N
27	-0.074882093	C5	N
28	-0.066965229	C5	N
29	-0.066892602	C5	N
30	-0.155962709	C5	N
31	-0.072945192	C5	N
32	-0.068533753	C5	N
33	0.033479226	C5	N
34	0.166149358	C5	N
35	0.308401713	C5	N
36	0.591069806	C5	N
37	1.06313462	C5	N
38	1.542946636	C5	N
39	2.006288012	C5	N
40	2.342991307	C5	N
1	-0.010424378	C6	N
2	0.162897443	C6	N
3	0.038758674	C6	N
4	0.021013084	C6	N
5	-0.137962862	C6	N
6	-0.08470634	C6	N
7	-0.240055184	C6	N
8	-0.314493689	C6	N
9	-0.282095711	C6	N
10	-0.395871884	C6	N
11	-0.677508267	C6	N
12	-0.619751397	C6	N
13	-0.795802621	C6	N
14	-0.861281688	C6	N
15	-1.061951509	C6	N
16	-1.105117769	C6	N
17	-1.250427996	C6	N
18	-1.298487335	C6	N
19	-1.262472336	C6	N
20	-1.296574704	C6	N
21	-1.355841996	C6	N
22	-1.537073411	C6	N
23	-1.643143577	C6	N
24	-1.678445889	C6	N
25	-1.714212498	C6	N
26	-1.777378087	C6	N
27	-1.85698968	C6	N
28	-1.870102072	C6	N
29	-1.918870025	C6	N
30	-1.987658492	C6	N
31	-2.184769315	C6	N
32	-2.213478855	C6	N
33	-2.135948856	C6	N
34	-2.084377755	C6	N
35	-2.320547952	C6	N
36	-2.139763959	C6	N
37	-2.147788961	C6	N
38	-2.12890748	C6	N
39	-2.163851436	C6	N
40	-2.054361093	C6	N
1	0.02775994	D1	N
2	-0.048523421	D1	N
3	-0.017688994	D1	N
4	-0.057524689	D1	N
5	-0.006332501	D1	N
6	0.130069605	D1	N
7	0.091760638	D1	N
8	-0.148613448	D1	N
9	0.029180899	D1	N
10	0.124134712	D1	N
11	0.016007033	D1	N
12	-0.135125324	D1	N
13	0.029945227	D1	N
14	0.035809948	D1	N
15	-0.075282627	D1	N
16	-0.020126961	D1	N
17	-0.020905053	D1	N
18	0.131714583	D1	N
19	-0.023447766	D1	N
20	-0.011231539	D1	N
21	0.040671156	D1	N
22	-0.076342841	D1	N
23	-0.07889799	D1	N
24	-0.12160195	D1	N
25	-0.129179919	D1	N
26	-0.241581386	D1	N
27	-0.076371802	D1	N
28	-0.178517429	D1	N
29	-0.233461553	D1	N
30	-0.173742785	D1	N
31	-0.184923662	D1	N
32	-0.235565493	D1	N
33	-0.120452737	D1	N
34	-0.129249587	D1	N
35	0.03348741	D1	N
36	-0.131249453	D1	N
37	-0.187591181	D1	N
38	-0.075324949	D1	N
39	-0.191451186	D1	N
40	-0.24282972	D1	N
1	-0.101200314	D2	S2
2	-0.073855225	D2	S2
3	-0.04947061	D2	S2
4	0.019520171	D2	S2
5	0.067372673	D2	S2
6	0.036432991	D2	S2
7	0.106548927	D2	S2
8	-0.075940559	D2	S2
9	-0.212968203	D2	S2
10	-0.021856824	D2	S2
11	-0.021753882	D2	S2
12	-0.163106103	D2	S2
13	0.046074061	D2	S2
14	0.001257001	D2	S2
15	0.050081191	D2	S2
16	-0.000650457	D2	S2
17	-0.156577129	D2	S2
18	0.089990482	D2	S2
19	-0.004533978	D2	S2
20	0.113341114	D2	S2
21	0.213755639	D2	S2
22	0.668533661	D2	S2
23	0.92304425	D2	S2
24	1.974661374	D2	S2
25	3.098937984	D2	S2
26	4.692704046	D2	S2
27	6.559113743	D2	S2
28	7.819728424	D2	S2
29	9.164849511	D2	S2
30	9.804855537	D2	S2
31	9.972727934	D2	S2
32	10.40055339	D2	S2
33	10.37152505	D2	S2
34	10.28819452	D2	S2
35	10.54642162	D2	S2
36	10.28184782	D2	S2
37	10.37895973	D2	S2
38	10.54776657	D2	S2
39	10.3662209	D2	S2
40	10.42899965	D2	S2
1	-0.041983287	D3	S2
2	-0.118615562	D3	S2
3	0.001461432	D3	S2
4	-0.030059589	D3	S2
5	0.065349967	D3	S2
6	0.081863752	D3	S2
7	0.002202519	D3	S2
8	-0.027222776	D3	S2
9	-0.156758396	D3	S2
10	0.074535535	D3	S2
11	0.074564845	D3	S2
12	-0.059548832	D3	S2
13	-0.007056983	D3	S2
14	-0.049455583	D3	S2
15	-0.151801367	D3	S2
16	-0.051573304	D3	S2
17	-0.052418445	D3	S2
18	-0.015179897	D3	S2
19	-0.005991486	D3	S2
20	0.059005853	D3	S2
21	0.30430553	D3	S2
22	0.491750875	D3	S2
23	1.033535507	D3	S2
24	2.144867016	D3	S2
25	3.37210964	D3	S2
26	4.852230693	D3	S2
27	6.545980839	D3	S2
28	8.105926576	D3	S2
29	9.099238157	D3	S2
30	9.665031334	D3	S2
31	9.873854938	D3	S2
32	10.08672672	D3	S2
33	10.10953051	D3	S2
34	10.12747773	D3	S2
35	10.12730388	D3	S2
36	10.02211092	D3	S2
37	9.916749642	D3	S2
38	10.17899163	D3	S2
39	10.10299345	D3	S2
40	10.0148797	D3	S2
1	-0.696556552	D4	N
2	-0.356687185	D4	N
3	-0.218669325	D4	N
4	0.057883453	D4	N
5	0.049898717	D4	N
6	0.467574341	D4	N
7	0.410132536	D4	N
8	0.255445569	D4	N
9	0.486023631	D4	N
10	0.50138189	D4	N
11	0.645375556	D4	N
12	0.385752379	D4	N
13	0.488071413	D4	N
14	0.550772892	D4	N
15	0.496464532	D4	N
16	0.594871805	D4	N
17	0.448389888	D4	N
18	0.664227261	D4	N
19	0.490327227	D4	N
20	0.376302028	D4	N
21	0.418342805	D4	N
22	0.349795772	D4	N
23	0.295368104	D4	N
24	0.228545206	D4	N
25	0.210087899	D4	N
26	0.249545546	D4	N
27	0.208417365	D4	N
28	0.225648755	D4	N
29	-0.016215697	D4	N
30	0.093881695	D4	N
31	0.114306247	D4	N
32	-0.020691423	D4	N
33	0.13981938	D4	N
34	0.069643756	D4	N
35	0.214120696	D4	N
36	0.113434407	D4	N
37	0.060799439	D4	N
38	0.504327724	D4	N
39	0.822604877	D4	N
40	1.36100405	D4	N
1	0.69841606	D5	N
2	0.38671235	D5	N
3	-0.130231809	D5	N
4	-0.206517311	D5	N
5	-0.136820097	D5	N
6	0.086856867	D5	N
7	-0.218817255	D5	N
8	-0.305882745	D5	N
9	-0.092505776	D5	N
10	-0.381517145	D5	N
11	-0.240109182	D5	N
12	-0.341293687	D5	N
13	-0.275320313	D5	N
14	-0.373359778	D5	N
15	-0.486692938	D5	N
16	-0.622530352	D5	N
17	-0.770535063	D5	N
18	-0.702982169	D5	N
19	-0.741804702	D5	N
20	-0.885951748	D5	N
21	-0.809678521	D5	N
22	-1.060506805	D5	N
23	-1.126101927	D5	N
24	-1.081649234	D5	N
25	-1.231310137	D5	N
26	-1.444886518	D5	N
27	-1.278711093	D5	N
28	-1.318614599	D5	N
29	-1.460742044	D5	N
30	-1.513257537	D5	N
31	-1.692615985	D5	N
32	-1.520296149	D5	N
33	-1.472030245	D5	N
34	-1.775584859	D5	N
35	-1.586393519	D5	N
36	-1.503907756	D5	N
37	-1.516370592	D5	N
38	-1.391922672	D5	N
39	-1.54149553	D5	N
40	-1.517714485	D5	N
1	-0.199823919	E1	N
2	0.051375774	E1	N
3	-0.029618526	E1	N
4	-0.013414689	E1	N
5	0.03758424	E1	N
6	-0.045926799	E1	N
7	-0.083325011	E1	N
8	-0.000483271	E1	N
9	-0.037780196	E1	N
10	-0.052150358	E1	N
11	-0.160595442	E1	N
12	0.014865322	E1	N
13	0.017556218	E1	N
14	-0.084994855	E1	N
15	-0.08770418	E1	N
16	-0.141278912	E1	N
17	-0.087671528	E1	N
18	0.010248745	E1	N
19	-0.035970692	E1	N
20	0.032116971	E1	N
21	-0.079780373	E1	N
22	-0.088842084	E1	N
23	-0.037302465	E1	N
24	-0.024186616	E1	N
25	-0.19634247	E1	N
26	-0.146163258	E1	N
27	-0.089196768	E1	N
28	-0.081991956	E1	N
29	-0.137263261	E1	N
30	-0.131559818	E1	N
31	-0.253124969	E1	N
32	-0.030716578	E1	N
33	0.030986273	E1	N
34	-0.033551104	E1	N
35	0.456914283	E1	N
36	0.673029277	E1	N
37	1.27006413	E1	N
38	1.766289928	E1	N
39	2.462797273	E1	N
40	2.685984994	E1	N
1	-0.105205662	E2	S2
2	0.08074194	E2	S2
3	-0.100982359	E2	S2
4	-0.085388523	E2	S2
5	0.067115929	E2	S2
6	0.038513013	E2	S2
7	0.003604278	E2	S2
8	-0.021940587	E2	S2
9	0.046627963	E2	S2
10	0.187276786	E2	S2
11	0.032370913	E2	S2
12	-0.006964736	E2	S2
13	-0.004392904	E2	S2
14	-0.153732752	E2	S2
15	-0.052683416	E2	S2
16	-0.10371188	E2	S2
17	-0.104441646	E2	S2
18	-0.063242301	E2	S2
19	-0.003485031	E2	S2
20	0.009732963	E2	S2
21	0.162822784	E2	S2
22	0.516342874	E2	S2
23	0.979483967	E2	S2
24	1.826072479	E2	S2
25	2.955354367	E2	S2
26	4.503403356	E2	S2
27	6.376059002	E2	S2
28	8.211830292	E2	S2
29	9.457670988	E2	S2
30	10.25566425	E2	S2
31	10.73554396	E2	S2
32	10.95739191	E2	S2
33	10.98036609	E2	S2
34	10.89653422	E2	S2
35	11.10400358	E2	S2
36	10.89059081	E2	S2
37	10.98832395	E2	S2
38	10.79476008	E2	S2
39	10.92422326	E2	S2
40	10.98740935	E2	S2
1	-0.020222328	E3	S2
2	0.107860161	E3	S2
3	-0.067160937	E3	S2
4	-0.152172242	E3	S2
5	0.094510738	E3	S2
6	0.016962279	E3	S2
7	-0.066469623	E3	S2
8	0.058122592	E3	S2
9	0.074540087	E3	S2
10	0.15988496	E3	S2
11	0.06063817	E3	S2
12	0.072779615	E3	S2
13	0.07537061	E3	S2
14	-0.11798332	E3	S2
15	0.029031917	E3	S2
16	0.179450761	E3	S2
17	-0.02074243	E3	S2
18	0.018689682	E3	S2
19	0.076226541	E3	S2
20	0.089254297	E3	S2
21	0.286300335	E3	S2
22	0.576067951	E3	S2
23	0.921591453	E3	S2
24	1.785435663	E3	S2
25	3.020785155	E3	S2
26	4.509027646	E3	S2
27	6.359576189	E3	S2
28	8.174922621	E3	S2
29	9.422911926	E3	S2
30	10.39086981	E3	S2
31	10.75100107	E3	S2
32	10.71507027	E3	S2
33	11.08761339	E3	S2
34	11.10564858	E3	S2
35	10.95571022	E3	S2
36	10.94997749	E3	S2
37	10.94392448	E3	S2
38	10.9079699	E3	S2
39	11.13102258	E3	S2
40	10.99249273	E3	S2
1	-0.20663441	E4	N
2	-0.086256624	E4	N
3	-0.066788469	E4	N
4	0.048561004	E4	N
5	0.092952885	E4	N
6	0.011531205	E4	N
7	-0.06595011	E4	N
8	0.097943438	E4	N
9	0.069078965	E4	N
10	0.149202325	E4	N
11	0.004393702	E4	N
12	0.163808595	E4	N
13	0.118544243	E4	N
14	-0.06797512	E4	N
15	0.025822442	E4	N
16	0.075242973	E4	N
17	-0.070928577	E4	N
18	0.061894648	E4	N
19	0.022775991	E4	N
20	0.03817778	E4	N
21	0.03506425	E4	N
22	0.024740576	E4	N
23	-0.026850036	E4	N
24	0.085058155	E4	N
25	-0.069945273	E4	N
26	-0.074613116	E4	N
27	0.02557812	E4	N
28	0.034140156	E4	N
29	-0.014723434	E4	N
30	-0.00799081	E4	N
31	-0.022353687	E4	N
32	0.031276095	E4	N
33	0.136323442	E4	N
34	0.464242684	E4	N
35	0.70653417	E4	N
36	1.091943959	E4	N
37	1.815999776	E4	N
38	2.210266845	E4	N
39	2.826440607	E4	N
40	2.880544217	E4	N
1	-0.255402038	E5	N
2	0.046360738	E5	N
3	0.007775802	E5	N
4	-0.063878134	E5	N
5	-0.02147157	E5	N
6	0.031213164	E5	N
7	-0.038599742	E5	N
8	0.018069416	E5	N
9	-0.004384263	E5	N
10	0.022050318	E5	N
11	-0.072869334	E5	N
12	0.088164527	E5	N
13	-0.002976005	E5	N
14	-0.088882314	E5	N
15	0.05001921	E5	N
16	0.051371989	E5	N
17	-0.092633833	E5	N
18	0.081553672	E5	N
19	-0.001506265	E5	N
20	-0.029261855	E5	N
21	0.014500049	E5	N
22	-0.046314581	E5	N
23	-0.002605263	E5	N
24	0.017201838	E5	N
25	-0.18507207	E5	N
26	-0.04746172	E5	N
27	-0.042264018	E5	N
28	-0.078101326	E5	N
29	-0.173387232	E5	N
30	0.02679904	E5	N
31	-0.039479535	E5	N
32	0.014782544	E5	N
33	0.264049193	E5	N
34	0.439544093	E5	N
35	0.72512284	E5	N
36	0.960181138	E5	N
37	1.480474829	E5	N
38	1.869181203	E5	N
39	2.138959208	E5	N
40	2.288047048	E5	N
1	-0.048186716	F1	N
2	-0.070728141	F1	N
3	-0.040282218	F1	N
4	0.085642498	F1	N
5	-0.083565111	F1	N
6	0.108932972	F1	N
7	-0.039473512	F1	N
8	-0.0094531	F1	N
9	0.006849348	F1	N
10	-0.116526138	F1	N
11	-0.006818585	F1	N
12	0.060149248	F1	N
13	-0.102153836	F1	N
14	-0.096139334	F1	N
15	-0.043728645	F1	N
16	-0.042860514	F1	N
17	-0.043706757	F1	N
18	0.000892873	F1	N
19	0.008717996	F1	N
20	-0.088618584	F1	N
21	-0.146278027	F1	N
22	-0.099807836	F1	N
23	-0.047504906	F1	N
24	-0.200438298	F1	N
25	-0.098306006	F1	N
26	-0.047506649	F1	N
27	-0.045081153	F1	N
28	-0.203659054	F1	N
29	-0.149267902	F1	N
30	-0.08873115	F1	N
31	-0.155981344	F1	N
32	-0.262237981	F1	N
33	0.020214078	F1	N
34	0.065722853	F1	N
35	0.285896013	F1	N
36	0.449302556	F1	N
37	0.942600772	F1	N
38	1.718912086	F1	N
39	2.258178043	F1	N
40	2.703472927	F1	N
1	-0.059780057	F2	S2
2	-0.032657078	F2	S2
3	-0.113383925	F2	S2
4	0.061962497	F2	S2
5	0.057906263	F2	S2
6	0.026172243	F2	S2
7	0.045023052	F2	S2
8	0.01638128	F2	S2
9	0.035001061	F2	S2
10	0.019247221	F2	S2
11	-0.032906831	F2	S2
12	-0.019324363	F2	S2
13	0.036140724	F2	S2
14	-0.114335548	F2	S2
15	0.092571946	F2	S2
16	0.093540188	F2	S2
17	-0.012305497	F2	S2
18	0.132930644	F2	S2
19	-0.015359129	F2	S2
20	0.05190394	F2	S2
21	0.101491214	F2	S2
22	0.300975005	F2	S2
23	0.559667695	F2	S2
24	1.206186377	F2	S2
25	2.244134396	F2	S2
26	3.6532703	F2	S2
27	5.495309614	F2	S2
28	7.246753089	F2	S2
29	8.87541574	F2	S2
30	10.10370269	F2	S2
31	10.74612336	F2	S2
32	10.97098962	F2	S2
33	11.25796641	F2	S2
34	11.27689769	F2	S2
35	11.22415424	F2	S2
36	11.16562228	F2	S2
37	11.15920772	F2	S2
38	11.27898514	F2	S2
39	11.0937223	F2	S2
40	11.26260279	F2	S2
1	-0.130520458	F3	N
2	-0.00154826	F3	N
3	-0.0784754	F3	N
4	-0.01164665	F3	N
5	0.03527805	F3	N
6	0.05639226	F3	N
7	0.023414435	F3	N
8	0.047185132	F3	N
9	0.06456381	F3	N
10	0.100161801	F3	N
11	0.04994649	F3	N
12	0.062784324	F3	N
13	-0.03531801	F3	N
14	0.072209641	F3	N
15	0.069298292	F3	N
16	0.070147324	F3	N
17	-0.031630759	F3	N
18	0.007823635	F3	N
19	0.116957634	F3	N
20	0.080341916	F3	N
21	-0.023558938	F3	N
22	0.017540305	F3	N
23	0.014560039	F3	N
24	0.027659502	F3	N
25	-0.031926755	F3	N
26	0.013666417	F3	N
27	0.116904049	F3	N
28	0.073379278	F3	N
29	0.021716313	F3	N
30	-0.073949668	F3	N
31	0.014104153	F3	N
32	-0.082548131	F3	N
33	0.126990816	F3	N
34	0.066051643	F3	N
35	0.217718162	F3	N
36	0.316907508	F3	N
37	0.617865421	F3	N
38	1.128338036	F3	N
39	1.925671109	F3	N
40	3.3447223	F3	N
1	-0.067341152	F4	N
2	-0.084919561	F4	N
3	-0.005815648	F4	N
4	0.104894702	F4	N
5	0.052820447	F4	N
6	-0.066979939	F4	N
7	-0.054358011	F4	N
8	-0.073641747	F4	N
9	0.036992887	F4	N
10	-0.120583412	F4	N
11	0.026221142	F4	N
12	-0.013400973	F4	N
13	-0.011256107	F4	N
14	-0.006514844	F4	N
15	0.040497137	F4	N
16	-0.007991419	F4	N
17	0.040615187	F4	N
18	-0.016690301	F4	N
19	0.038415476	F4	N
20	0.048739576	F4	N
21	-0.149992403	F4	N
22	-0.009324129	F4	N
23	-0.011285149	F4	N
24	-0.001320721	F4	N
25	-0.105589001	F4	N
26	-0.01032979	F4	N
27	0.041267242	F4	N
28	-0.051165495	F4	N
29	-0.05118455	F4	N
30	-0.095821454	F4	N
31	-0.055997108	F4	N
32	-0.151055171	F4	N
33	0.0509853	F4	N
34	0.092405564	F4	N
35	0.042928405	F4	N
36	-0.106246434	F4	N
37	-0.010154626	F4	N
38	-0.007690825	F4	N
39	-0.11313361	F4	N
40	-0.111726258	F4	N
1	-0.082386852	F5	N
2	-0.009725246	F5	N
3	-0.037155396	F5	N
4	0.028272273	F5	N
5	0.024442694	F5	N
6	-0.005834325	F5	N
7	0.012125553	F5	N
8	-0.015323643	F5	N
9	0.050785141	F5	N
10	-0.156808322	F5	N
11	0.035673159	F5	N
12	0.000666513	F5	N
13	-0.044668732	F5	N
14	0.058586946	F5	N
15	0.055631137	F5	N
16	-0.040073411	F5	N
17	-0.137533616	F5	N
18	0.044198024	F5	N
19	0.004504857	F5	N
20	-0.029687928	F5	N
21	-0.129232787	F5	N
22	-0.041905878	F5	N
23	-0.189497576	F5	N
24	-0.030605395	F5	N
25	-0.183866958	F5	N
26	-0.091083609	F5	N
27	-0.135777902	F5	N
28	0.017805535	F5	N
29	-0.078901272	F5	N
30	-0.169339592	F5	N
31	-0.0371615	F5	N
32	-0.080866242	F5	N
33	0.120288949	F5	N
34	0.206161607	F5	N
35	0.689458251	F5	N
36	1.315565138	F5	N
37	2.569064826	F5	N
38	4.075150192	F5	N
39	5.991104748	F5	N
40	7.980245651	F5	N
1	0.163289896	G1	N
2	0.140683607	G1	N
3	-0.052254298	G1	N
4	0.018746791	G1	N
5	0.071616888	G1	N
6	-0.178792988	G1	N
7	-0.051432527	G1	N
8	-0.186697165	G1	N
9	0.108086099	G1	N
10	-0.128556304	G1	N
11	-0.128528782	G1	N
12	-0.117216572	G1	N
13	-0.226682663	G1	N
14	-0.165144516	G1	N
15	-0.167573438	G1	N
16	-0.166751175	G1	N
17	-0.111463509	G1	N
18	-0.288855634	G1	N
19	-0.225882955	G1	N
20	-0.157948118	G1	N
21	-0.160351598	G1	N
22	-0.112609307	G1	N
23	-0.28311431	G1	N
24	-0.215703163	G1	N
25	-0.279459241	G1	N
26	-0.227509084	G1	N
27	-0.169413974	G1	N
28	-0.219060184	G1	N
29	-0.275871757	G1	N
30	-0.327138731	G1	N
31	-0.2820525	G1	N
32	-0.166054676	G1	N
33	-0.215924329	G1	N
34	-0.224724692	G1	N
35	-0.224859037	G1	N
36	-0.394416154	G1	N
37	-0.39614034	G1	N
38	-0.280502937	G1	N
39	-0.343623974	G1	N
40	-0.172681817	G1	N
1	-0.204157946	G2	S2
2	0.040915023	G2	S2
3	-0.040203036	G2	S2
4	-0.023336681	G2	S2
5	0.026478514	G2	S2
6	-0.00385382	G2	S2
7	0.014177767	G2	S2
8	-0.013237445	G2	S2
9	0.111381071	G2	S2
10	0.042751687	G2	S2
11	-0.116945634	G2	S2
12	0.056231813	G2	S2
13	0.00574527	G2	S2
14	-0.041047793	G2	S2
15	-0.097424224	G2	S2
16	0.010483735	G2	S2
17	-0.097290745	G2	S2
18	-0.055142438	G2	S2
19	-0.046673579	G2	S2
20	0.181728723	G2	S2
21	0.125211044	G2	S2
22	0.542912334	G2	S2
23	0.966905417	G2	S2
24	1.893993517	G2	S2
25	3.004732646	G2	S2
26	4.707776346	G2	S2
27	6.58563626	G2	S2
28	8.31843923	G2	S2
29	9.603346062	G2	S2
30	10.64095871	G2	S2
31	11.02810323	G2	S2
32	11.3105909	G2	S2
33	11.33473491	G2	S2
34	11.46190182	G2	S2
35	11.5689247	G2	S2
36	11.29538914	G2	S2
37	11.39621808	G2	S2
38	11.57178539	G2	S2
39	11.43719816	G2	S2
40	11.50246893	G2	S2
1	-0.090684645	G3	N
2	0.040239757	G3	N
3	-0.039158111	G3	N
4	0.029513714	G3	N
5	0.02565804	G3	N
6	-0.0562534	G3	N
7	0.013258238	G3	N
8	-0.065580044	G3	N
9	0.106554174	G3	N
10	-0.011553374	G3	N
11	-0.062699809	G3	N
12	0.001862342	G3	N
13	-0.046614332	G3	N
14	-0.091508909	G3	N
15	-0.0943709	G3	N
16	-0.041920601	G3	N
17	-0.042708473	G3	N
18	-0.054048719	G3	N
19	-0.045591067	G3	N
20	0.07192424	G3	N
21	-0.085749583	G3	N
22	-0.043789871	G3	N
23	-0.098279758	G3	N
24	0.018579003	G3	N
25	-0.041924275	G3	N
26	0.056389894	G3	N
27	-0.095340087	G3	N
28	-0.087645536	G3	N
29	-0.088171183	G3	N
30	-0.081992866	G3	N
31	-0.146897922	G3	N
32	-0.090784523	G3	N
33	-0.13499758	G3	N
34	-0.145296492	G3	N
35	-0.248580363	G3	N
36	-0.198737243	G3	N
37	-0.252364549	G3	N
38	0.009753126	G3	N
39	-0.205364486	G3	N
40	-0.099426686	G3	N
1	-0.151647139	G4	N
2	-0.072923208	G4	N
3	0.002466917	G4	N
4	0.118954491	G4	N
5	0.014713991	G4	N
6	-0.06321219	G4	N
7	0.103782353	G4	N
8	-0.021878304	G4	N
9	0.094735344	G4	N
10	0.030684413	G4	N
11	-0.119257726	G4	N
12	0.042977151	G4	N
13	-0.104667116	G4	N
14	-0.098686038	G4	N
15	-0.101344324	G4	N
16	0.10027046	G4	N
17	-0.051104596	G4	N
18	-0.06143938	G4	N
19	0.046626928	G4	N
20	-0.090974438	G4	N
21	-0.093425367	G4	N
22	0.048383689	G4	N
23	-0.054424062	G4	N
24	-0.041495	G4	N
25	-0.149482327	G4	N
26	-0.002537176	G4	N
27	0.000897688	G4	N
28	0.008853129	G4	N
29	-0.091633517	G4	N
30	-0.085583499	G4	N
31	-0.147869198	G4	N
32	0.007133257	G4	N
33	-0.086548084	G4	N
34	0.004298084	G4	N
35	0.054232158	G4	N
36	0.052235078	G4	N
37	0.150220248	G4	N
38	0.455464675	G4	N
39	0.947801034	G4	N
40	1.503366503	G4	N
1	-0.177810686	G5	N
2	-0.001555477	G5	N
3	0.021920473	G5	N
4	0.038090822	G5	N
5	-0.015093267	G5	N
6	-0.043362551	G5	N
7	0.022783799	G5	N
8	0.046089765	G5	N
9	0.063085494	G5	N
10	-0.000374382	G5	N
11	-0.049634263	G5	N
12	0.012006497	G5	N
13	-0.083931269	G5	N
14	0.021077928	G5	N
15	0.067715074	G5	N
16	0.068620261	G5	N
17	0.067838147	G5	N
18	0.007645778	G5	N
19	-0.083078931	G5	N
20	-0.020350541	G5	N
21	0.026505158	G5	N
22	0.066785465	G5	N
23	0.01483702	G5	N
24	-0.070776057	G5	N
25	-0.17741893	G5	N
26	0.016642072	G5	N
27	0.06949168	G5	N
28	0.028235758	G5	N
29	-0.021189792	G5	N
30	-0.014928026	G5	N
31	0.021957817	G5	N
32	0.125438181	G5	N
33	0.083192107	G5	N
34	0.270841779	G5	N
35	0.666234107	G5	N
36	1.010097842	G5	N
37	1.600342346	G5	N
38	2.00122643	G5	N
39	2.186441648	G5	N
40	2.289461708	G5	N
1	0.009190133	H1	N
2	0.029366119	H1	N
3	-0.012301852	H1	N
4	0.013532015	H1	N
5	-0.049843117	H1	N
6	0.019246835	H1	N
7	-0.125708269	H1	N
8	0.004955414	H1	N
9	0.032070514	H1	N
10	0.066312178	H1	N
11	0.066345777	H1	N
12	-0.199873922	H1	N
13	-0.023680729	H1	N
14	0.158520617	H1	N
15	0.154121247	H1	N
16	-0.016533368	H1	N
17	-0.13264593	H1	N
18	-0.092286845	H1	N
19	-0.07956215	H1	N
20	-0.058287611	H1	N
21	-0.062627231	H1	N
22	-0.019675144	H1	N
23	-0.138840184	H1	N
24	-0.118083886	H1	N
25	-0.246150755	H1	N
26	-0.252521569	H1	N
27	-0.018337142	H1	N
28	-0.178441957	H1	N
29	-0.121375112	H1	N
30	0.003345131	H1	N
31	-0.189063567	H1	N
32	-0.23963111	H1	N
33	-0.22849681	H1	N
34	-0.243889997	H1	N
35	-0.129065084	H1	N
36	-0.361378466	H1	N
37	-0.306758048	H1	N
38	-0.29987928	H1	N
39	-0.254927612	H1	N
40	-0.306872911	H1	N
1	0.206846465	H2	S2
2	0.066590506	H2	S2
3	-0.075481702	H2	S2
4	-0.000825146	H2	S2
5	0.104835423	H2	S2
6	-0.095119081	H2	S2
7	-0.074400858	H2	S2
8	-0.160463093	H2	S2
9	-0.085420546	H2	S2
10	0.006620026	H2	S2
11	-0.04789776	H2	S2
12	-0.142165146	H2	S2
13	-0.138899372	H2	S2
14	-0.186258548	H2	S2
15	-0.134604959	H2	S2
16	-0.18832848	H2	S2
17	-0.353893898	H2	S2
18	-0.202060091	H2	S2
19	-0.192463432	H2	S2
20	-0.121452963	H2	S2
21	0.09515007	H2	S2
22	0.467875562	H2	S2
23	1.23177422	H2	S2
24	2.186011478	H2	S2
25	3.709111847	H2	S2
26	5.675827308	H2	S2
27	7.879171988	H2	S2
28	9.166115588	H2	S2
29	10.10034474	H2	S2
30	10.78135885	H2	S2
31	10.84796618	H2	S2
32	11.02821975	H2	S2
33	11.163422	H2	S2
34	11.29349544	H2	S2
35	11.34836685	H2	S2
36	11.17749461	H2	S2
37	11.22601777	H2	S2
38	11.13190486	H2	S2
39	11.15837078	H2	S2
40	11.33548621	H2	S2
1	-0.038202535	H3	N
2	-0.165883871	H3	N
3	-0.147805224	H3	N
4	0.046334405	H3	N
5	0.079796264	H3	N
6	0.187558426	H3	N
7	-0.089938024	H3	N
8	-0.019605148	H3	N
9	0.072960924	H3	N
10	0.100384167	H3	N
11	-0.163324584	H3	N
12	-0.254054667	H3	N
13	-0.451161103	H3	N
14	-0.576415539	H3	N
15	-0.484906191	H3	N
16	-0.691965173	H3	N
17	-0.802577318	H3	N
18	-0.859369559	H3	N
19	-0.975607262	H3	N
20	-1.276416102	H3	N
21	-1.237349167	H3	N
22	-1.495925619	H3	N
23	-1.457008912	H3	N
24	-1.494152071	H3	N
25	-1.959966103	H3	N
26	-1.87296863	H3	N
27	-1.908585155	H3	N
28	-1.97430715	H3	N
29	-2.133879457	H3	N
30	-2.31514083	H3	N
31	-2.324737862	H3	N
32	-2.302492101	H3	N
33	-2.479157294	H3	N
34	-2.528093027	H3	N
35	-2.528236711	H3	N
36	-2.69610458	H3	N
37	-2.652177426	H3	N
38	-2.736496958	H3	N
39	-2.246741745	H3	N
40	-1.911278685	H3	N
1	0.038612397	H4	N
2	0.011082986	H4	N
3	0.083962729	H4	N
4	-0.000614142	H4	N
5	-0.004813716	H4	N
6	-0.089617857	H4	N
7	-0.018360027	H4	N
8	-0.048450769	H4	N
9	0.074323775	H4	N
10	0.057498664	H4	N
11	0.109052578	H4	N
12	-0.030815457	H4	N
13	-0.079159631	H4	N
14	-0.123539718	H4	N
15	0.028230871	H4	N
16	-0.07399616	H4	N
17	-0.023284442	H4	N
18	-0.035743079	H4	N
19	-0.077975856	H4	N
20	-0.0106252	H4	N
21	-0.065481186	H4	N
22	0.027440246	H4	N
23	-0.182093209	H4	N
24	-0.011612129	H4	N
25	-0.124127047	H4	N
26	-0.179886716	H4	N
27	-0.020934416	H4	N
28	-0.114963228	H4	N
29	-0.114880534	H4	N
30	-0.055829708	H4	N
31	0.033015715	H4	N
32	-0.01347564	H4	N
33	-0.005014183	H4	N
34	0.190149251	H4	N
35	0.655287853	H4	N
36	0.962978339	H4	N
37	1.735131453	H4	N
38	2.413769749	H4	N
39	2.91600233	H4	N
40	3.386708897	H4	N
1	0.113108806	H5	N
2	-0.012832997	H5	N
3	0.063664677	H5	N
4	-0.022508191	H5	N
5	0.076172801	H5	N
6	-0.10449629	H5	N
7	-0.037335253	H5	N
8	-0.011742252	H5	N
9	0.004773953	H5	N
10	-0.110571845	H5	N
11	-0.059860054	H5	N
12	0.053921856	H5	N
13	0.005766245	H5	N
14	-0.089931178	H5	N
15	0.009200114	H5	N
16	-0.040834304	H5	N
17	-0.143470662	H5	N
18	-0.102828856	H5	N
19	-0.145995388	H5	N
20	-0.082216973	H5	N
21	-0.084806544	H5	N
22	-0.042620291	H5	N
23	0.056646086	H5	N
24	-0.083093904	H5	N
25	-0.090744582	H5	N
26	-0.246888349	H5	N
27	0.010914273	H5	N
28	-0.083046804	H5	N
29	-0.083046804	H5	N
30	-0.077037174	H5	N
31	-0.038222168	H5	N
32	-0.135861457	H5	N
33	-0.12898166	H5	N
34	0.065305625	H5	N
35	0.166927073	H5	N
36	0.215915753	H5	N
37	0.519147529	H5	N
38	1.033354534	H5	N
39	1.786736652	H5	N
40	2.45333275	H5	N
