Cycles	Fluorescence	Sample	genotype
1	0.179797551	A1	N
2	0.020597931	A1	N
3	0.013032783	A1	N
4	-0.060374437	A1	N
5	0.089084545	A1	N
6	-0.062340822	A1	N
7	0.09315415	A1	N
8	0.175452467	A1	N
9	0.250080542	A1	N
10	0.008350691	A1	N
11	0.169180111	A1	N
12	0.015003564	A1	N
13	0.091137701	A1	N
14	0.095110639	A1	N
15	0.33024787	A1	N
16	0.412145736	A1	N
17	0.481941321	A1	N
18	0.095737379	A1	N
19	0.326395857	A1	N
20	0.331703126	A1	N
21	0.104703965	A1	N
22	0.244757893	A1	N
23	0.336021555	A1	N
24	0.41964123	A1	N
25	0.236988634	A1	N
26	0.23051222	A1	N
27	0.152100307	A1	N
28	0.461335309	A1	N
29	0.30524603	A1	N
30	0.389578198	A1	N
31	0.235413792	A1	N
32	0.310307848	A1	N
33	0.312538096	A1	N
34	0.232554306	A1	N
35	0.309510615	A1	N
36	0.15545185	A1	N
37	0.235722577	A1	N
38	0.463506986	A1	N
39	0.467486707	A1	N
40	0.308843123	A1	N
1	-0.052090622	A2	N
2	-0.129055113	A2	N
3	0.086597591	A2	N
4	0.017105952	A2	N
5	0.010291874	A2	N
6	0.015059696	A2	N
7	0.08858064	A2	N
8	0.092612617	A2	N
9	0.089226972	A2	N
10	0.08175819	A2	N
11	0.160788447	A2	N
12	0.311506824	A2	N
13	0.012206512	A2	N
14	0.164970072	A2	N
15	0.239842926	A2	N
16	0.243460027	A2	N
17	0.309822956	A2	N
18	0.165490868	A2	N
19	0.384710386	A2	N
20	0.241300989	A2	N
21	0.398364543	A2	N
22	0.455361541	A2	N
23	0.468924891	A2	N
24	0.399709616	A2	N
25	0.299006759	A2	N
26	0.440321545	A2	N
27	0.36562587	A2	N
28	0.437958584	A2	N
29	0.363314457	A2	N
30	0.369931231	A2	N
31	0.445451407	A2	N
32	0.516448256	A2	N
33	0.518756446	A2	N
34	0.590416124	A2	N
35	0.811461478	A2	N
36	0.961202958	A2	N
37	1.630838222	A2	N
38	2.954949438	A2	N
39	4.591033319	A2	N
40	7.25009972	A2	N
1	0.165953842	A3	N
2	0.01996034	A3	N
3	0.011281974	A3	N
4	-0.125960965	A3	N
5	0.080280298	A3	N
6	0.014438353	A3	N
7	0.227625801	A3	N
8	0.232484721	A3	N
9	0.228485836	A3	N
10	0.219505525	A3	N
11	0.296616249	A3	N
12	0.298873103	A3	N
13	0.296516137	A3	N
14	0.158746918	A3	N
15	0.302157195	A3	N
16	0.377824841	A3	N
17	0.368552009	A3	N
18	0.444991511	A3	N
19	0.440494034	A3	N
20	0.303851318	A3	N
21	0.312870295	A3	N
22	0.507667511	A3	N
23	0.66618846	A3	N
24	0.52940705	A3	N
25	0.427096137	A3	N
26	0.419365371	A3	N
27	0.418593118	A3	N
28	0.558710661	A3	N
29	0.557819064	A3	N
30	0.423586025	A3	N
31	0.567412919	A3	N
32	0.492930814	A3	N
33	0.708761488	A3	N
34	0.705947102	A3	N
35	0.705019295	A3	N
36	0.635841762	A3	N
37	0.852323107	A3	N
38	0.916379851	A3	N
39	1.063702898	A3	N
40	0.775913972	A3	N
1	0.132925792	A4	N
2	-0.077861619	A4	N
3	0.052571876	A4	N
4	-0.080608713	A4	N
5	0.050326811	A4	N
6	0.055571645	A4	N
7	-0.014445744	A4	N
8	0.059052996	A4	N
9	0.055516316	A4	N
10	0.185560393	A4	N
11	-0.085718247	A4	N
12	0.19312173	A4	N
13	0.052509617	A4	N
14	-0.081549189	A4	N
15	0.126844783	A4	N
16	0.199931372	A4	N
17	0.122367709	A4	N
18	-0.011745909	A4	N
19	0.192052624	A4	N
20	0.128282105	A4	N
21	0.136483718	A4	N
22	0.050147115	A4	N
23	0.202014698	A4	N
24	0.068522126	A4	N
25	0.111134878	A4	N
26	0.173258213	A4	N
27	-0.033884734	A4	N
28	0.308576859	A4	N
29	0.170210506	A4	N
30	0.108117161	A4	N
31	0.109595267	A4	N
32	0.106688828	A4	N
33	0.039930281	A4	N
34	0.175485348	A4	N
35	0.037044534	A4	N
36	-0.168169015	A4	N
37	-0.02762591	A4	N
38	0.242635593	A4	N
39	0.178294574	A4	N
40	0.038308949	A4	N
1	0.14741968	A5	N
2	0.007460115	A5	N
3	0.063914035	A5	N
4	-0.13242899	A5	N
5	0.128695461	A5	N
6	-0.067640622	A5	N
7	-0.068630328	A5	N
8	0.141098051	A5	N
9	-0.067667538	A5	N
10	-0.078656806	A5	N
11	0.064097324	A5	N
12	-0.136582224	A5	N
13	-0.003889357	A5	N
14	0.138078199	A5	N
15	0.003200867	A5	N
16	0.076246708	A5	N
17	0.064909197	A5	N
18	0.071076892	A5	N
19	0.201503385	A5	N
20	0.141023209	A5	N
21	0.084309145	A5	N
22	0.128546627	A5	N
23	0.147073003	A5	N
24	0.154337978	A5	N
25	0.116718199	A5	N
26	0.174578645	A5	N
27	-0.096768119	A5	N
28	0.238055588	A5	N
29	0.101802038	A5	N
30	0.110696538	A5	N
31	-0.022647016	A5	N
32	0.040746479	A5	N
33	0.11134637	A5	N
34	0.10807596	A5	N
35	0.107144411	A5	N
36	-0.025974104	A5	N
37	-0.022238496	A5	N
38	0.307846657	A5	N
39	0.178547854	A5	N
40	0.107030433	A5	N
1	0.182253095	A6	N
2	-0.157400215	A6	N
3	0.172690377	A6	N
4	-0.092215091	A6	N
5	0.036262821	A6	N
6	0.040662108	A6	N
7	0.107438771	A6	N
8	0.043547769	A6	N
9	0.040688775	A6	N
10	0.033920442	A6	N
11	-0.096380756	A6	N
12	0.040042297	A6	N
13	0.105420913	A6	N
14	-0.02550748	A6	N
15	-0.024947292	A6	N
16	0.045472095	A6	N
17	0.106086793	A6	N
18	0.042421005	A6	N
19	0.039187549	A6	N
20	0.043547769	A6	N
21	0.117790954	A6	N
22	0.036135142	A6	N
23	0.114286145	A6	N
24	0.118328472	A6	N
25	0.09532398	A6	N
26	0.088756536	A6	N
27	-0.114005462	A6	N
28	0.151339356	A6	N
29	-0.051121618	A6	N
30	0.020191279	A6	N
31	-0.046238075	A6	N
32	0.152082216	A6	N
33	0.086570413	A6	N
34	0.285721147	A6	N
35	0.284915816	A6	N
36	0.420251594	A6	N
37	1.09356756	A6	N
38	2.360323265	A6	N
39	4.110178957	A6	N
40	6.854002894	A6	N
1	0.038807739	B1	N
2	-0.117523464	B1	N
3	0.104554017	B1	N
4	0.032967878	B1	N
5	-0.050850182	B1	N
6	0.030851751	B1	N
7	0.106650516	B1	N
8	0.110966175	B1	N
9	0.030621712	B1	N
10	0.022807638	B1	N
11	-0.125427302	B1	N
12	0.02998629	B1	N
13	-0.048868883	B1	N
14	0.338878949	B1	N
15	0.262774149	B1	N
16	0.420186484	B1	N
17	0.334701988	B1	N
18	0.492910593	B1	N
19	0.641934645	B1	N
20	0.341008811	B1	N
21	0.349735683	B1	N
22	0.561348872	B1	N
23	0.499388537	B1	N
24	0.351168579	B1	N
25	0.399508654	B1	N
26	0.392359367	B1	N
27	0.467818358	B1	N
28	0.389938732	B1	N
29	0.617680634	B1	N
30	0.548884963	B1	N
31	0.626902614	B1	N
32	0.547264308	B1	N
33	0.473460149	B1	N
34	0.547348153	B1	N
35	0.470148605	B1	N
36	0.319197356	B1	N
37	0.70397946	B1	N
38	0.545347855	B1	N
39	0.70269558	B1	N
40	0.699899925	B1	N
1	-0.210986058	B2	N
2	-0.140567669	B2	N
3	-0.002847413	B2	N
4	0.075362073	B2	N
5	0.067868466	B2	N
6	0.000184542	B2	N
7	-0.073639212	B2	N
8	0.149622482	B2	N
9	2.43E-05	B2	N
10	0.064809348	B2	N
11	-0.002876301	B2	N
12	-0.000783203	B2	N
13	0.142837266	B2	N
14	0.074400958	B2	N
15	0.293839215	B2	N
16	0.005555562	B2	N
17	0.143279364	B2	N
18	0.220744009	B2	N
19	0.435350408	B2	N
20	0.222411077	B2	N
21	0.157763321	B2	N
22	0.140202364	B2	N
23	0.080635596	B2	N
24	0.15914726	B2	N
25	0.059245552	B2	N
26	0.19756446	B2	N
27	0.34190652	B2	N
28	0.267867815	B2	N
29	0.339392278	B2	N
30	0.419233245	B2	N
31	0.348123015	B2	N
32	0.345005024	B2	N
33	0.129586867	B2	N
34	0.199816575	B2	N
35	0.344083183	B2	N
36	0.273202844	B2	N
37	0.421116339	B2	N
38	0.415154689	B2	N
39	0.492038588	B2	N
40	0.561431197	B2	N
1	-0.005528729	B3	N
2	-0.07851357	B3	N
3	0.193075494	B3	N
4	-0.151621307	B3	N
5	0.050832248	B3	N
6	-0.013772864	B3	N
7	0.195261413	B3	N
8	0.059776721	B3	N
9	-0.01387779	B3	N
10	0.04779468	B3	N
11	-0.156758992	B3	N
12	0.055274806	B3	N
13	0.052975395	B3	N
14	-0.082380081	B3	N
15	0.128186999	B3	N
16	-0.008113019	B3	N
17	0.053664848	B3	N
18	0.198182716	B3	N
19	0.403941231	B3	N
20	-0.010421093	B3	N
21	0.138257657	B3	N
22	0.050559965	B3	N
23	0.34469185	B3	N
24	0.069396038	B3	N
25	0.1120514	B3	N
26	0.244361457	B3	N
27	0.243589474	B3	N
28	0.102850597	B3	N
29	0.310696183	B3	N
30	0.317984323	B3	N
31	0.319538345	B3	N
32	0.177051932	B3	N
33	0.109670524	B3	N
34	0.246720637	B3	N
35	0.245850522	B3	N
36	0.108156774	B3	N
37	0.389875375	B3	N
38	0.244681452	B3	N
39	0.318876992	B3	N
40	0.316285913	B3	N
1	-0.045838838	B4	N
2	-0.116740752	B4	N
3	0.010676522	B4	N
4	-0.05176516	B4	N
5	0.144004956	B4	N
6	0.013824434	B4	N
7	0.080802564	B4	N
8	0.153399141	B4	N
9	-0.054181156	B4	N
10	0.073190949	B4	N
11	-0.12486925	B4	N
12	0.080836453	B4	N
13	0.078514032	B4	N
14	0.083331148	B4	N
15	0.151815535	B4	N
16	-0.048221431	B4	N
17	0.011337936	B4	N
18	0.219718992	B4	N
19	0.419046641	B4	N
20	0.221281593	B4	N
21	0.2982434	B4	N
22	0.279546051	B4	N
23	0.089882261	B4	N
24	0.163579511	B4	N
25	0.20292345	B4	N
26	0.263258907	B4	N
27	0.262559412	B4	N
28	0.193403286	B4	N
29	0.32754391	B4	N
30	0.267321813	B4	N
31	0.268902574	B4	N
32	0.198224773	B4	N
33	0.132982923	B4	N
34	0.130564626	B4	N
35	0.062296975	B4	N
36	0.199129854	B4	N
37	0.202095954	B4	N
38	0.331503663	B4	N
39	0.33640082	B4	N
40	0.469203722	B4	N
1	-0.177326027	B5	N
2	-0.047047747	B5	N
3	0.143177776	B5	N
4	-0.117139113	B5	N
5	0.007447287	B5	N
6	0.013561797	B5	N
7	-0.053921404	B5	N
8	0.084283322	B5	N
9	0.146774634	B5	N
10	0.004177232	B5	N
11	0.010162933	B5	N
12	0.079237918	B5	N
13	0.076547332	B5	N
14	0.081885794	B5	N
15	0.082607184	B5	N
16	0.02023675	B5	N
17	0.210526919	B5	N
18	0.215824083	B5	N
19	0.344306387	B5	N
20	0.150811383	B5	N
21	0.294094517	B5	N
22	0.140177945	B5	N
23	0.222367227	B5	N
24	0.094574082	B5	N
25	0.129028173	B5	N
26	0.252541179	B5	N
27	0.250169326	B5	N
28	0.246739107	B5	N
29	0.244317253	B5	N
30	0.317318811	B5	N
31	0.318150934	B5	N
32	0.181270237	B5	N
33	0.183468567	B5	N
34	0.313137013	B5	N
35	0.113354949	B5	N
36	0.314078505	B5	N
37	0.317430998	B5	N
38	0.443302573	B5	N
39	0.38236128	B5	N
40	0.44566137	B5	N
1	-0.149533678	B6	S9
2	-0.152614078	B6	S9
3	0.102430311	B6	S9
4	-0.023556531	B6	S9
5	0.09991399	B6	S9
6	-0.026173693	B6	S9
7	0.039092801	B6	S9
8	0.242790723	B6	S9
9	-0.092333493	B6	S9
10	0.228519833	B6	S9
11	0.03660574	B6	S9
12	0.171413384	B6	S9
13	0.300761696	B6	S9
14	-0.024371583	B6	S9
15	0.241054832	B6	S9
16	0.179272203	B6	S9
17	0.169489798	B6	S9
18	0.307194206	B6	S9
19	0.500782212	B6	S9
20	0.507591735	B6	S9
21	0.650664627	B6	S9
22	1.024510791	B6	S9
23	1.904749111	B6	S9
24	2.975009415	B6	S9
25	5.361438196	B6	S9
26	8.632870333	B6	S9
27	12.83846111	B6	S9
28	16.70921623	B6	S9
29	20.31878435	B6	S9
30	23.52129317	B6	S9
31	25.57303002	B6	S9
32	26.93100372	B6	S9
33	27.73899498	B6	S9
34	28.1805892	B6	S9
35	28.30572157	B6	S9
36	28.18670007	B6	S9
37	28.47514855	B6	S9
38	28.62715592	B6	S9
39	28.66486822	B6	S9
40	28.7101733	B6	S9
1	0.01087329	C1	N
2	-0.144746682	C1	N
3	-0.079312338	C1	N
4	0.07891083	C1	N
5	0.144917271	C1	N
6	0.000230919	C1	N
7	0.302300442	C1	N
8	0.308253093	C1	N
9	0.378980562	C1	N
10	0.216537577	C1	N
11	0.299141093	C1	N
12	0.22640967	C1	N
13	0.450607336	C1	N
14	0.229370021	C1	N
15	0.306095915	C1	N
16	0.386926039	C1	N
17	0.527134949	C1	N
18	0.457580569	C1	N
19	0.528050829	C1	N
20	0.45978172	C1	N
21	0.39525303	C1	N
22	0.371567084	C1	N
23	0.390001198	C1	N
24	0.473238517	C1	N
25	0.511239774	C1	N
26	0.426508684	C1	N
27	0.425444049	C1	N
28	0.423533567	C1	N
29	0.648202411	C1	N
30	0.431652469	C1	N
31	0.509149067	C1	N
32	0.429541856	C1	N
33	0.432766226	C1	N
34	0.354173182	C1	N
35	0.353114097	C1	N
36	0.35530116	C1	N
37	0.43463252	C1	N
38	0.276656137	C1	N
39	0.584497158	C1	N
40	0.581266706	C1	N
1	-0.049004043	C2	N
2	-0.124189302	C2	N
3	0.083583923	C2	N
4	0.016847733	C2	N
5	0.009166827	C2	N
6	0.014590819	C2	N
7	0.013692669	C2	N
8	0.090306512	C2	N
9	0.158611716	C2	N
10	0.149965036	C2	N
11	0.299370325	C2	N
12	0.22980029	C2	N
13	0.155304116	C2	N
14	0.088055865	C2	N
15	0.232844337	C2	N
16	0.453411899	C2	N
17	0.371993887	C2	N
18	0.449092559	C2	N
19	0.372666664	C2	N
20	0.306603914	C2	N
21	0.243397839	C2	N
22	0.296742535	C2	N
23	0.383711207	C2	N
24	0.461779935	C2	N
25	0.503108353	C2	N
26	0.638825382	C2	N
27	0.422825687	C2	N
28	0.349624198	C2	N
29	0.49182481	C2	N
30	0.284329451	C2	N
31	0.429539953	C2	N
32	0.426213193	C2	N
33	0.28524175	C2	N
34	0.42630696	C2	N
35	0.497060478	C2	N
36	0.355447925	C2	N
37	0.502098845	C2	N
38	0.496144779	C2	N
39	0.429326453	C2	N
40	0.426795541	C2	N
1	-0.130102078	C3	N
2	-0.13302384	C3	N
3	-0.072010863	C3	N
4	0.140887002	C3	N
5	0.063989143	C3	N
6	0.000158559	C3	N
7	0.206825876	C3	N
8	0.142308324	C3	N
9	0.069281691	C3	N
10	0.061049924	C3	N
11	0.273638114	C3	N
12	0.068447727	C3	N
13	0.204486204	C3	N
14	0.001703622	C3	N
15	0.209905666	C3	N
16	0.352435136	C3	N
17	0.205056145	C3	N
18	0.20978821	C3	N
19	0.344074259	C3	N
20	0.211464836	C3	N
21	0.011956556	C3	N
22	0.132817462	C3	N
23	0.216073269	C3	N
24	0.360412969	C3	N
25	0.262124824	C3	N
26	0.255020167	C3	N
27	0.254189336	C3	N
28	0.184008297	C3	N
29	0.320589011	C3	N
30	0.259011929	C3	N
31	0.260555356	C3	N
32	0.257463754	C3	N
33	0.397752348	C3	N
34	0.188636722	C3	N
35	0.32544507	C3	N
36	0.189511236	C3	N
37	0.330235783	C3	N
38	0.324592742	C3	N
39	0.467253558	C3	N
40	0.39588152	C3	N
1	-0.084398623	C4	N
2	-0.020536102	C4	N
3	-0.030121289	C4	N
4	0.110221952	C4	N
5	0.034275118	C4	N
6	-0.093839679	C4	N
7	0.173765021	C4	N
8	-0.022462287	C4	N
9	0.107594082	C4	N
10	-0.169939991	C4	N
11	-0.030134239	C4	N
12	-0.094680127	C4	N
13	-0.030147687	C4	N
14	-0.293510232	C4	N
15	-0.09134329	C4	N
16	-0.087117696	C4	N
17	0.037709574	C4	N
18	-0.158547498	C4	N
19	0.038474982	C4	N
20	0.111972424	C4	N
21	-0.214965276	C4	N
22	-0.032816962	C4	N
23	-0.017323092	C4	N
24	0.056036349	C4	N
25	0.091554763	C4	N
26	0.016993289	C4	N
27	-0.050688219	C4	N
28	-0.118920552	C4	N
29	-0.119897358	C4	N
30	-0.112375354	C4	N
31	-0.043831814	C4	N
32	-0.113933816	C4	N
33	-0.111407276	C4	N
34	-0.113859894	C4	N
35	-0.047975355	C4	N
36	-0.246646811	C4	N
37	-0.176747512	C4	N
38	-0.115731094	C4	N
39	-0.110785883	C4	N
40	-0.180109559	C4	N
1	0.009514962	C5	N
2	-0.125847275	C5	N
3	-0.069034569	C5	N
4	0.06866732	C5	N
5	0.125976939	C5	N
6	0.000237585	C5	N
7	-0.066495935	C5	N
8	0.004391642	C5	N
9	-0.06569118	C5	N
10	-0.074451564	C5	N
11	-0.003125326	C5	N
12	-0.066469771	C5	N
13	-0.003111879	C5	N
14	-0.129757095	C5	N
15	-0.063194723	C5	N
16	0.006865924	C5	N
17	0.063528834	C5	N
18	-0.063234124	C5	N
19	-0.001589275	C5	N
20	-0.061647201	C5	N
21	-0.184818891	C5	N
22	-0.137381776	C5	N
23	-0.057057287	C5	N
24	-0.117682306	C5	N
25	0.049788342	C5	N
26	-0.024102263	C5	N
27	0.039276164	C5	N
28	-0.094813152	C5	N
29	-0.097453319	C5	N
30	-0.223018526	C5	N
31	-0.157123076	C5	N
32	-0.161083344	C5	N
33	-0.093730871	C5	N
34	-0.22785667	C5	N
35	-0.163215912	C5	N
36	-0.292830311	C5	N
37	-0.09323895	C5	N
38	-0.099097783	C5	N
39	-0.029105053	C5	N
40	-0.163214961	C5	N
1	-0.110828537	C5	S9
2	-0.113248474	C5	S9
3	0.076002372	C5	S9
4	0.015217631	C5	S9
5	0.008738293	C5	S9
6	0.013290179	C5	S9
7	0.078161037	C5	S9
8	-0.04900344	C5	S9
9	0.209782478	C5	S9
10	0.006311425	C5	S9
11	0.141552757	C5	S9
12	0.078173994	C5	S9
13	0.206972649	C5	S9
14	-0.050658506	C5	S9
15	0.146335287	C5	S9
16	0.215067904	C5	S9
17	0.207669836	C5	S9
18	0.211799352	C5	S9
19	0.273649393	C5	S9
20	0.278661118	C5	S9
21	0.286368621	C5	S9
22	0.466311566	C5	S9
23	0.872838846	C5	S9
24	1.403769015	C5	S9
25	2.544300912	C5	S9
26	4.291211228	C5	S9
27	7.413274481	C5	S9
28	11.24762438	C5	S9
29	15.92814899	C5	S9
30	20.00194811	C5	S9
31	23.72700691	C5	S9
32	26.37678232	C5	S9
33	28.21910522	C5	S9
34	29.56876461	C5	S9
35	29.88783038	C5	S9
36	29.90060608	C5	S9
37	30.25192079	C5	S9
38	29.94478948	C5	S9
39	30.2432546	C5	S9
40	30.2223338	C5	S9
1	-0.369753306	D1	N
2	0.080855574	D1	N
3	-0.002766933	D1	N
4	-0.073152714	D1	N
5	-0.005030582	D1	N
6	9.47E-05	D1	N
7	-0.151544593	D1	N
8	0.00357224	D1	N
9	0.075446764	D1	N
10	0.067418414	D1	N
11	0.147781372	D1	N
12	0.074610715	D1	N
13	-0.002992806	D1	N
14	0.001368934	D1	N
15	0.077534686	D1	N
16	0.15665888	D1	N
17	0.072962017	D1	N
18	0.077542167	D1	N
19	0.149052234	D1	N
20	0.003429043	D1	N
21	0.087197925	D1	N
22	0.070075673	D1	N
23	0.158926819	D1	N
24	0.164167392	D1	N
25	0.362471784	D1	N
26	0.055177717	D1	N
27	0.279465492	D1	N
28	-0.022049779	D1	N
29	0.276884473	D1	N
30	0.208548376	D1	N
31	0.134510517	D1	N
32	0.280863964	D1	N
33	0.131819293	D1	N
34	0.203402887	D1	N
35	0.276532469	D1	N
36	0.126897014	D1	N
37	0.204117792	D1	N
38	0.348470325	D1	N
39	0.352841733	D1	N
40	0.500457477	D1	N
1	-0.106624952	D2	N
2	-0.109608999	D2	N
3	0.025978216	D2	N
4	-0.040677692	D2	N
5	0.095432768	D2	N
6	0.028875707	D2	N
7	0.028152777	D2	N
8	0.176142623	D2	N
9	-0.042956792	D2	N
10	-0.050768273	D2	N
11	0.169193477	D2	N
12	0.243220321	D2	N
13	0.09755397	D2	N
14	0.173835567	D2	N
15	0.246347542	D2	N
16	0.250045743	D2	N
17	0.313237488	D2	N
18	0.246247043	D2	N
19	0.242248011	D2	N
20	0.175956017	D2	N
21	0.256391161	D2	N
22	0.310055098	D2	N
23	0.252199614	D2	N
24	0.401515811	D2	N
25	0.372283342	D2	N
26	0.364950775	D2	N
27	0.363596537	D2	N
28	0.361801196	D2	N
29	0.431675863	D2	N
30	0.367169234	D2	N
31	0.29691251	D2	N
32	0.293261011	D2	N
33	0.295226928	D2	N
34	0.292512856	D2	N
35	0.362632113	D2	N
36	0.221110795	D2	N
37	0.366746084	D2	N
38	0.503878146	D2	N
39	0.437133294	D2	N
40	0.434584976	D2	N
1	-0.295002847	D3	N
2	-0.090826686	D3	N
3	-0.030520082	D3	N
4	-0.025057817	D3	N
5	0.035922071	D3	N
6	0.110482514	D3	N
7	0.040690424	D3	N
8	0.114458121	D3	N
9	0.041541569	D3	N
10	-0.035912678	D3	N
11	0.175968649	D3	N
12	0.247417662	D3	N
13	0.10718506	D3	N
14	0.112033076	D3	N
15	0.181776729	D3	N
16	0.254881111	D3	N
17	0.452303551	D3	N
18	0.388748931	D3	N
19	0.246375375	D3	N
20	0.183342957	D3	N
21	0.330831157	D3	N
22	0.517421637	D3	N
23	0.326048	D3	N
24	0.539185504	D3	N
25	0.575054778	D3	N
26	0.291857279	D3	N
27	0.632607495	D3	N
28	0.424118474	D3	N
29	0.558966709	D3	N
30	0.497403052	D3	N
31	0.498563045	D3	N
32	0.494537298	D3	N
33	0.496981667	D3	N
34	0.425713492	D3	N
35	0.561692926	D3	N
36	0.426396268	D3	N
37	0.635808021	D3	N
38	0.629405081	D3	N
39	0.634713925	D3	N
40	0.632030657	D3	N
1	0.093517192	H5	S9
2	-0.051228877	H5	S9
3	-0.059375606	H5	S9
4	-0.054084849	H5	S9
5	0.079707864	H5	S9
6	0.084981468	H5	S9
7	0.225609653	H5	S9
8	0.018003912	H5	S9
9	0.155841975	H5	S9
10	0.076736138	H5	S9
11	0.082043873	H5	S9
12	0.155024422	H5	S9
13	0.081994564	H5	S9
14	0.157329443	H5	S9
15	0.158006782	H5	S9
16	0.232644091	H5	S9
17	0.294710178	H5	S9
18	0.299598958	H5	S9
19	0.436747406	H5	S9
20	0.442664713	H5	S9
21	0.52283184	H5	S9
22	0.856250259	H5	S9
23	1.510256243	H5	S9
24	2.652712775	H5	S9
25	4.297918871	H5	S9
26	7.166752714	H5	S9
27	10.82054546	H5	S9
28	14.89071741	H5	S9
29	18.61094997	H5	S9
30	22.16951705	H5	S9
31	24.50310446	H5	S9
32	26.09899397	H5	S9
33	27.2424581	H5	S9
34	27.71610809	H5	S9
35	27.99097431	H5	S9
36	28.14361451	H5	S9
37	28.09766577	H5	S9
38	28.12431578	H5	S9
39	28.44318278	H5	S9
40	28.28355473	H5	S9
1	-0.133259645	H4	N
2	0.006793381	H4	N
3	0.068168863	H4	N
4	-0.140407038	H4	N
5	0.065336545	H4	N
6	0.000108249	H4	N
7	0.286018481	H4	N
8	0.220188391	H4	N
9	-0.071520132	H4	N
10	0.061607072	H4	N
11	0.139776493	H4	N
12	0.214404137	H4	N
13	0.068118558	H4	N
14	0.145526893	H4	N
15	0.361674154	H4	N
16	0.438483974	H4	N
17	0.427340558	H4	N
18	0.289888419	H4	N
19	0.428250826	H4	N
20	0.291829658	H4	N
21	0.374594236	H4	N
22	0.351407231	H4	N
23	0.584844564	H4	N
24	0.519733457	H4	N
25	0.482000366	H4	N
26	0.614410101	H4	N
27	0.46918914	H4	N
28	0.679259791	H4	N
29	0.533897533	H4	N
30	0.684236143	H4	N
31	0.470426309	H4	N
32	0.536219638	H4	N
33	0.680373493	H4	N
34	0.746687833	H4	N
35	0.458554823	H4	N
36	0.744694244	H4	N
37	0.747934462	H4	N
38	0.6683502	H4	N
39	0.816992772	H4	N
40	0.742253334	H4	N
1	-0.042720144	D4	N
2	-0.046632379	D4	N
3	0.076648697	D4	N
4	-0.050505058	D4	N
5	-0.060026823	D4	N
6	0.080515563	D4	N
7	-0.121271026	D4	N
8	-0.115607463	D4	N
9	0.013656925	D4	N
10	-0.263902453	D4	N
11	-0.057257686	D4	N
12	-0.054351234	D4	N
13	-0.123970311	D4	N
14	-0.118326718	D4	N
15	-0.117482833	D4	N
16	-0.112858045	D4	N
17	0.010510173	D4	N
18	-0.184448139	D4	N
19	-0.189178636	D4	N
20	-0.316674515	D4	N
21	-0.239590007	D4	N
22	0.073453981	D4	N
23	-0.177336273	D4	N
24	-0.170997173	D4	N
25	-0.00433579	D4	N
26	-0.212734923	D4	N
27	-0.147606403	D4	N
28	-0.349158975	D4	N
29	-0.284035005	D4	N
30	-0.143113783	D4	N
31	-0.208067158	D4	N
32	-0.278365366	D4	N
33	-0.475732723	D4	N
34	-0.411682313	D4	N
35	-0.279558345	D4	N
36	-0.410833455	D4	N
37	-0.274120686	D4	N
38	-0.280398252	D4	N
39	-0.275088753	D4	N
40	-0.277760936	D4	N
1	-0.150795251	D5	N
2	-0.026281639	D5	N
3	0.085047188	D5	N
4	-0.099343103	D5	N
5	0.079628428	D5	N
6	-0.039050874	D5	N
7	-0.106483574	D5	N
8	-0.161447519	D5	N
9	-0.301885659	D5	N
10	-0.255368309	D5	N
11	0.085178677	D5	N
12	-0.106496531	D5	N
13	-0.177456182	D5	N
14	-0.232465309	D5	N
15	-0.23077198	D5	N
16	-0.221987834	D5	N
17	-0.241522786	D5	N
18	-0.230706145	D5	N
19	-0.305391274	D5	N
20	-0.358765985	D5	N
21	-0.339473879	D5	N
22	-0.117174808	D5	N
23	-0.348426192	D5	N
24	-0.402080674	D5	N
25	-0.268027801	D5	N
26	-0.283875831	D5	N
27	-0.351380814	D5	N
28	-0.485633954	D5	N
29	-0.357203874	D5	N
30	-0.276682893	D5	N
31	-0.404416662	D5	N
32	-0.673255378	D5	N
33	-0.668445402	D5	N
34	-0.542812477	D5	N
35	-0.479361224	D5	N
36	-0.672356319	D5	N
37	-0.469857965	D5	N
38	-0.613446967	D5	N
39	-0.670051267	D5	N
40	-0.545498469	D5	N
1	-0.142496449	E1	N
2	-0.069961321	E1	N
3	-0.002950915	E1	N
4	-0.073078085	E1	N
5	0.070226014	E1	N
6	0.075764307	E1	N
7	0.075092973	E1	N
8	0.079797507	E1	N
9	0.000141535	E1	N
10	-0.083934675	E1	N
11	0.072552598	E1	N
12	0.074873944	E1	N
13	0.148176394	E1	N
14	0.228714305	E1	N
15	0.153764109	E1	N
16	0.385183976	E1	N
17	0.224454676	E1	N
18	-0.073259879	E1	N
19	0.452092378	E1	N
20	0.306812035	E1	N
21	0.012558975	E1	N
22	0.220931818	E1	N
23	0.387247935	E1	N
24	0.39305275	E1	N
25	0.436642841	E1	N
26	0.653725617	E1	N
27	0.801741399	E1	N
28	0.948756351	E1	N
29	1.397253739	E1	N
30	2.459949657	E1	N
31	3.893331052	E1	N
32	6.59697809	E1	N
33	10.44538512	E1	N
34	14.72866342	E1	N
35	18.56430179	E1	N
36	22.11284864	E1	N
37	24.84655643	E1	N
38	26.23716038	E1	N
39	27.25225713	E1	N
40	27.83624723	E1	N
1	-0.048626843	E2	N
2	-0.051863332	E2	N
3	0.083578023	E2	N
4	-0.05515185	E2	N
5	0.009008667	E2	N
6	0.014428492	E2	N
7	0.01373256	E2	N
8	0.018244046	E2	N
9	-0.057573732	E2	N
10	-0.137855685	E2	N
11	-0.060817657	E2	N
12	0.157550808	E2	N
13	0.011214576	E2	N
14	0.087823211	E2	N
15	0.016460569	E2	N
16	0.092475295	E2	N
17	0.155743744	E2	N
18	-0.055548108	E2	N
19	0.156323228	E2	N
20	0.089927973	E2	N
21	-0.045897829	E2	N
22	0.080057061	E2	N
23	0.166072202	E2	N
24	0.026454085	E2	N
25	0.212562534	E2	N
26	0.203439847	E2	N
27	0.271541605	E2	N
28	0.123816443	E2	N
29	0.119975508	E2	N
30	0.12430564	E2	N
31	-0.019743844	E2	N
32	0.190191997	E2	N
33	0.190882842	E2	N
34	-0.02826553	E2	N
35	-0.102349752	E2	N
36	-0.030082862	E2	N
37	0.115718013	E2	N
38	0.037962608	E2	N
39	0.113993494	E2	N
40	0.254669961	E2	N
1	0.022533409	E3	S9
2	0.01944416	E3	S9
3	-0.058197464	E3	S9
4	0.016263	E3	S9
5	0.07786668	E3	S9
6	-0.055376377	E3	S9
7	0.0132321	E3	S9
8	0.086969927	E3	S9
9	-0.055300362	E3	S9
10	0.074966107	E3	S9
11	0.080055303	E3	S9
12	0.01298292	E3	S9
13	0.01090165	E3	S9
14	0.223133192	E3	S9
15	0.015937815	E3	S9
16	0.019727448	E3	S9
17	0.08054364	E3	S9
18	0.01602759	E3	S9
19	0.427470308	E3	S9
20	0.433399373	E3	S9
21	0.442475006	E3	S9
22	0.907359372	E3	S9
23	1.618026731	E3	S9
24	2.737432377	E3	S9
25	4.968718845	E3	S9
26	7.915610713	E3	S9
27	11.97668421	E3	S9
28	16.03263386	E3	S9
29	20.15863951	E3	S9
30	23.3722884	E3	S9
31	25.5903163	E3	S9
32	27.29053057	E3	S9
33	28.06732921	E3	S9
34	28.25549766	E3	S9
35	29.07614476	E3	S9
36	28.95110605	E3	S9
37	28.90753528	E3	S9
38	28.86291896	E3	S9
39	29.245975	E3	S9
40	29.15764902	E3	S9
1	-0.086354192	E4	N
2	-0.021722602	E4	N
3	-0.029614946	E4	N
4	-0.024639264	E4	N
5	0.035484162	E4	N
6	0.04049265	E4	N
7	0.107196242	E4	N
8	0.044130526	E4	N
9	-0.02666606	E4	N
10	-0.03432259	E4	N
11	0.17215933	E4	N
12	0.17431488	E4	N
13	0.037766086	E4	N
14	0.176573445	E4	N
15	0.177291313	E4	N
16	0.181058866	E4	N
17	0.307254708	E4	N
18	0.042740255	E4	N
19	0.308003954	E4	N
20	0.246133353	E4	N
21	0.186828294	E4	N
22	0.30391794	E4	N
23	0.385054521	E4	N
24	0.255155308	E4	N
25	0.42857586	E4	N
26	0.35379728	E4	N
27	0.552569768	E4	N
28	0.148556827	E4	N
29	0.213385964	E4	N
30	0.554041635	E4	N
31	0.35397162	E4	N
32	0.283531765	E4	N
33	0.352708202	E4	N
34	0.283305284	E4	N
35	0.349134891	E4	N
36	0.484900585	E4	N
37	0.286729647	E4	N
38	0.348315522	E4	N
39	0.486763849	E4	N
40	0.417168681	E4	N
1	-0.105460318	E5	N
2	-0.110274306	E5	N
3	0.074685423	E5	N
4	-0.048934384	E5	N
5	0.071016626	E5	N
6	0.01350664	E5	N
7	0.012408549	E5	N
8	-0.04647023	E5	N
9	-0.052449291	E5	N
10	0.000359506	E5	N
11	-0.057433895	E5	N
12	0.078390926	E5	N
13	-0.123423825	E5	N
14	-0.05015302	E5	N
15	-0.0490077	E5	N
16	-0.109199573	E5	N
17	0.142028574	E5	N
18	-0.048822663	E5	N
19	0.011006949	E5	N
20	-0.046503161	E5	N
21	-0.033164509	E5	N
22	-0.061103759	E5	N
23	0.026934379	E5	N
24	-0.163483435	E5	N
25	-0.008320752	E5	N
26	-0.084949101	E5	N
27	-0.020464454	E5	N
28	-0.219850078	E5	N
29	-0.155389224	E5	N
30	-0.01330939	E5	N
31	-0.076598844	E5	N
32	-0.015396945	E5	N
33	-0.143536854	E5	N
34	-0.081279728	E5	N
35	-0.01685727	E5	N
36	-0.277841644	E5	N
37	-0.141750895	E5	N
38	-0.018922557	E5	N
39	-0.144248525	E5	N
40	-0.017181333	E5	N
1	-0.159522733	F1	S9
2	-0.086044496	F1	S9
3	0.058204654	F1	S9
4	-0.089241072	F1	S9
5	-0.020579427	F1	S9
6	0.137660341	F1	S9
7	-0.092333215	F1	S9
8	-0.011283106	F1	S9
9	0.061398047	F1	S9
10	-0.023642888	F1	S9
11	-0.018257389	F1	S9
12	0.060459751	F1	S9
13	-0.01830346	F1	S9
14	-0.013643762	F1	S9
15	0.140055475	F1	S9
16	-0.085653945	F1	S9
17	0.058844055	F1	S9
18	-0.012734908	F1	S9
19	0.135846162	F1	S9
20	0.218164785	F1	S9
21	0.304065235	F1	S9
22	0.589828882	F1	S9
23	1.218694195	F1	S9
24	1.916046639	F1	S9
25	3.854447993	F1	S9
26	6.349127717	F1	S9
27	10.07099934	F1	S9
28	14.31976119	F1	S9
29	18.34156048	F1	S9
30	21.72797825	F1	S9
31	24.17311322	F1	S9
32	26.20397017	F1	S9
33	26.90527124	F1	S9
34	27.72253026	F1	S9
35	28.09534229	F1	S9
36	28.10668259	F1	S9
37	28.20703745	F1	S9
38	28.39075089	F1	S9
39	28.27610885	F1	S9
40	28.40889692	F1	S9
1	-0.805802235	F2	S9
2	-0.517497478	F2	S9
3	-0.309778671	F2	S9
4	0.134818262	F2	S9
5	0.269528474	F2	S9
6	0.422929412	F2	S9
7	0.2761664	F2	S9
8	0.428743911	F2	S9
9	0.423031098	F2	S9
10	0.555998905	F2	S9
11	0.636882361	F2	S9
12	0.640380907	F2	S9
13	0.636860446	F2	S9
14	0.643912491	F2	S9
15	0.936722141	F2	S9
16	0.943015919	F2	S9
17	0.929296174	F2	S9
18	0.936919147	F2	S9
19	1.148874963	F2	S9
20	1.158044375	F2	S9
21	1.245349715	F2	S9
22	1.651862067	F2	S9
23	2.041679826	F2	S9
24	2.709856113	F2	S9
25	4.104342066	F2	S9
26	6.333914487	F2	S9
27	9.809120946	F2	S9
28	13.7137518	F2	S9
29	17.76488643	F2	S9
30	21.86758163	F2	S9
31	24.63565296	F2	S9
32	26.71477016	F2	S9
33	27.89426137	F2	S9
34	28.67198123	F2	S9
35	29.31752797	F2	S9
36	29.5483696	F2	S9
37	29.43001491	F2	S9
38	29.59979388	F2	S9
39	29.71330449	F2	S9
40	30.49064523	F2	S9
1	-0.257173305	F3	N
2	-0.260404132	F3	N
3	0.081031581	F3	N
4	0.01684724	F3	N
5	0.078268107	F3	N
6	0.084257203	F3	N
7	-0.056746716	F3	N
8	0.018369839	F3	N
9	0.154515324	F3	N
10	0.004762575	F3	N
11	0.08068144	F3	N
12	0.083301439	F3	N
13	0.080667494	F3	N
14	0.155964356	F3	N
15	0.297128363	F3	N
16	0.020683188	F3	N
17	0.151461404	F3	N
18	0.086677372	F3	N
19	0.292275476	F3	N
20	0.158386268	F3	N
21	0.30874537	F3	N
22	0.147387624	F3	N
23	0.303566463	F3	N
24	0.309380744	F3	N
25	0.205745996	F3	N
26	0.196236242	F3	N
27	0.123444257	F3	N
28	0.258680945	F3	N
29	0.115875958	F3	N
30	0.400751492	F3	N
31	0.331001339	F3	N
32	0.18645444	F3	N
33	0.188170057	F3	N
34	0.184614317	F3	N
35	0.182856256	F3	N
36	0.114339173	F3	N
37	0.327034353	F3	N
38	0.180821161	F3	N
39	0.395384968	F3	N
40	0.182867759	F3	N
1	-0.007699197	F4	N
2	-0.146369201	F4	N
3	0.052583046	F4	N
4	0.056373192	F4	N
5	0.051019263	F4	N
6	-0.013606299	F4	N
7	-0.218598824	F4	N
8	-0.079330419	F4	N
9	-0.218125514	F4	N
10	-0.087106783	F4	N
11	-0.151980157	F4	N
12	-0.014092776	F4	N
13	-0.083758389	F4	N
14	-0.080880949	F4	N
15	0.056032545	F4	N
16	-0.077948803	F4	N
17	-0.015275384	F4	N
18	-0.148559119	F4	N
19	0.053254636	F4	N
20	-0.079494323	F4	N
21	0.062791894	F4	N
22	0.18689312	F4	N
23	-0.008483966	F4	N
24	0.13183681	F4	N
25	-0.091741679	F4	N
26	0.03901347	F4	N
27	-0.098030011	F4	N
28	-0.099843413	F4	N
29	0.102087944	F4	N
30	-0.03020982	F4	N
31	0.105677538	F4	N
32	-0.101167829	F4	N
33	-0.169058135	F4	N
34	-0.104254961	F4	N
35	-0.038508544	F4	N
36	-0.242590145	F4	N
37	0.029952736	F4	N
38	-0.042440213	F4	N
39	-0.040422934	F4	N
40	0.025321689	F4	N
1	-0.219969369	F5	N
2	-0.15565678	F5	N
3	0.037397169	F5	N
4	-0.024379039	F5	N
5	0.035117357	F5	N
6	0.107521293	F5	N
7	-0.02727352	F5	N
8	0.111505989	F5	N
9	0.107742359	F5	N
10	0.03224889	F5	N
11	0.104585698	F5	N
12	0.173954315	F5	N
13	0.104558802	F5	N
14	0.109191774	F5	N
15	0.311359707	F5	N
16	0.382671969	F5	N
17	0.239353529	F5	N
18	0.11004783	F5	N
19	0.30714068	F5	N
20	0.24581771	F5	N
21	0.321977078	F5	N
22	0.303010054	F5	N
23	0.317528544	F5	N
24	0.323071635	F5	N
25	0.092643786	F5	N
26	0.151707984	F5	N
27	0.283270365	F5	N
28	0.280535606	F5	N
29	0.345054613	F5	N
30	0.484864709	F5	N
31	0.418735466	F5	N
32	0.347968604	F5	N
33	0.34982389	F5	N
34	0.346562093	F5	N
35	0.679050006	F5	N
36	0.680434936	F5	N
37	1.084597226	F5	N
38	1.878721723	F5	N
39	3.221984842	F5	N
40	5.155082024	F5	N
1	0.379342233	G1	N
2	0.221431414	G1	N
3	0.215811912	G1	N
4	-0.091975639	G1	N
5	-0.174036832	G1	N
6	-0.171230856	G1	N
7	-0.327216461	G1	N
8	-0.246865963	G1	N
9	-0.637854116	G1	N
10	-0.486338406	G1	N
11	-0.639283808	G1	N
12	-0.560505545	G1	N
13	-0.561499023	G1	N
14	-0.637231739	G1	N
15	-0.714866176	G1	N
16	-0.713212753	G1	N
17	-0.950032811	G1	N
18	-1.026074351	G1	N
19	-0.794300359	G1	N
20	-1.025705103	G1	N
21	-1.178957511	G1	N
22	-1.106664234	G1	N
23	-1.180428609	G1	N
24	-1.179115545	G1	N
25	-1.188211138	G1	N
26	-1.268563898	G1	N
27	-1.270226998	G1	N
28	-1.272407291	G1	N
29	-1.351668181	G1	N
30	-1.273915436	G1	N
31	-0.964592843	G1	N
32	-1.508416321	G1	N
33	-1.5082053	G1	N
34	-1.509127205	G1	N
35	-1.586833071	G1	N
36	-1.509218964	G1	N
37	-1.276291288	G1	N
38	-1.35557847	G1	N
39	-1.354777028	G1	N
40	-1.201431449	G1	N
1	0.009818946	G2	N
2	-0.06806694	G2	N
3	-0.077553541	G2	N
4	0.151403042	G2	N
5	-0.154242194	G2	N
6	0.148459633	G2	N
7	0.221958848	G2	N
8	0.00433002	G2	N
9	0.074445135	G2	N
10	0.064745998	G2	N
11	0.219242258	G2	N
12	0.147661832	G2	N
13	0.144960007	G2	N
14	0.150359854	G2	N
15	0.225364329	G2	N
16	0.304300488	G2	N
17	0.220031693	G2	N
18	0.151224988	G2	N
19	0.369228408	G2	N
20	0.152837524	G2	N
21	0.162661193	G2	N
22	0.29036081	G2	N
23	0.232371176	G2	N
24	0.23840283	G2	N
25	0.279183866	G2	N
26	0.196284767	G2	N
27	0.120211594	G2	N
28	0.264361119	G2	N
29	0.261886643	G2	N
30	0.416375475	G2	N
31	0.417049442	G2	N
32	0.338763624	G2	N
33	0.045210918	G2	N
34	0.190085687	G2	N
35	0.115166123	G2	N
36	0.190749244	G2	N
37	0.268107882	G2	N
38	0.483306348	G2	N
39	0.118871989	G2	N
40	0.337612731	G2	N
1	-0.119091665	G3	N
2	-0.122500983	G3	N
3	0.082562549	G3	N
4	-0.126012681	G3	N
5	0.008443187	G3	N
6	0.157507928	G3	N
7	0.085092918	G3	N
8	0.162066306	G3	N
9	0.08608242	G3	N
10	0.147781256	G3	N
11	0.29695511	G3	N
12	0.156646961	G3	N
13	0.44003639	G3	N
14	0.302536834	G3	N
15	0.303190013	G3	N
16	0.451283452	G3	N
17	0.369240538	G3	N
18	0.374971757	G3	N
19	0.584683667	G3	N
20	0.305156746	G3	N
21	0.387097603	G3	N
22	0.508312137	G3	N
23	0.382301374	G3	N
24	0.460651208	G3	N
25	0.497398047	G3	N
26	0.417364397	G3	N
27	0.202607213	G3	N
28	0.627109644	G3	N
29	0.412159662	G3	N
30	0.419809208	G3	N
31	0.634766621	G3	N
32	0.416073155	G3	N
33	0.346232508	G3	N
34	0.626618745	G3	N
35	0.410504123	G3	N
36	0.410906639	G3	N
37	0.556142225	G3	N
38	0.548600388	G3	N
39	0.696565908	G3	N
40	0.622099197	G3	N
1	0.090760722	G4	N
2	0.018465869	G4	N
3	0.08126063	G4	N
4	-0.193208491	G4	N
5	0.009838917	G4	N
6	0.083643076	G4	N
7	0.013404158	G4	N
8	0.156511242	G4	N
9	-0.125239638	G4	N
10	-0.062040633	G4	N
11	0.081219041	G4	N
12	-0.12596523	G4	N
13	-0.058130968	G4	N
14	0.015154894	G4	N
15	0.015595124	G4	N
16	0.018558212	G4	N
17	0.011968969	G4	N
18	0.015678665	G4	N
19	0.082012915	G4	N
20	0.016810397	G4	N
21	-0.116512511	G4	N
22	0.009255276	G4	N
23	-0.049990692	G4	N
24	-0.046291877	G4	N
25	0.209778317	G4	N
26	0.202901973	G4	N
27	0.270212422	G4	N
28	0.544145687	G4	N
29	1.165327396	G4	N
30	2.281522596	G4	N
31	4.295571372	G4	N
32	7.202553673	G4	N
33	11.44163351	G4	N
34	16.70420896	G4	N
35	21.55471518	G4	N
36	26.28175739	G4	N
37	29.56761662	G4	N
38	31.94980026	G4	N
39	33.37875083	G4	N
40	33.98177009	G4	N
1	-0.224806353	G5	S9
2	-0.090391668	G5	S9
3	-0.030503422	G5	S9
4	-0.024778607	G5	S9
5	-0.032834673	G5	S9
6	0.178508371	G5	S9
7	0.040553179	G5	S9
8	-0.023417614	G5	S9
9	-0.09586621	G5	S9
10	-0.172916202	G5	S9
11	-0.030448635	G5	S9
12	-0.165312644	G5	S9
13	0.106723575	G5	S9
14	-0.025681601	G5	S9
15	-0.093706	G5	S9
16	0.047610442	G5	S9
17	-0.029759854	G5	S9
18	-0.024950178	G5	S9
19	0.313939291	G5	S9
20	0.113907496	G5	S9
21	0.123006162	G5	S9
22	0.515107875	G5	S9
23	1.150147864	G5	S9
24	2.052304288	G5	S9
25	3.650020755	G5	S9
26	6.297899285	G5	S9
27	10.04866082	G5	S9
28	14.2718073	G5	S9
29	18.22316852	G5	S9
30	21.67751748	G5	S9
31	24.48904177	G5	S9
32	25.89988323	G5	S9
33	27.00941462	G5	S9
34	27.80909531	G5	S9
35	28.07450182	G5	S9
36	28.22226838	G5	S9
37	28.38307227	G5	S9
38	28.26953146	G5	S9
39	28.57990465	G5	S9
40	28.21851893	G5	S9
1	0.221107156	H1	N
2	0.056529075	H1	N
3	0.122750374	H1	N
4	-0.10770451	H1	N
5	-0.039949889	H1	N
6	-0.03162505	H1	N
7	0.28592949	H1	N
8	0.054270664	H1	N
9	-0.031378314	H1	N
10	0.114387323	H1	N
11	0.123053199	H1	N
12	0.047013173	H1	N
13	-0.036239674	H1	N
14	0.050739515	H1	N
15	0.131662569	H1	N
16	0.137859698	H1	N
17	0.36328265	H1	N
18	0.052078363	H1	N
19	0.205182631	H1	N
20	0.134189457	H1	N
21	0.307838125	H1	N
22	0.119495845	H1	N
23	0.14179752	H1	N
24	0.1504586	H1	N
25	0.423579461	H1	N
26	0.332804154	H1	N
27	0.252315621	H1	N
28	0.249799086	H1	N
29	0.486172742	H1	N
30	0.339172194	H1	N
31	0.262239058	H1	N
32	0.178058593	H1	N
33	0.261119362	H1	N
34	0.495361628	H1	N
35	0.414793796	H1	N
36	0.655323476	H1	N
37	1.21627618	H1	N
38	2.157616721	H1	N
39	3.913714648	H1	N
40	6.525742366	H1	N
1	-0.0403827	H2	N
2	0.034062364	H2	N
3	0.028555388	H2	N
4	-0.120425871	H2	N
5	-0.048915687	H2	N
6	0.106723806	H2	N
7	0.029900603	H2	N
8	-0.119561017	H2	N
9	-0.198045234	H2	N
10	-0.126969229	H2	N
11	-0.199946921	H2	N
12	-0.046172071	H2	N
13	-0.123743873	H2	N
14	-0.197196119	H2	N
15	-0.044400253	H2	N
16	-0.118361812	H2	N
17	-0.123464963	H2	N
18	-0.196809591	H2	N
19	-0.123018528	H2	N
20	0.109260945	H2	N
21	-0.191073858	H2	N
22	-0.201399294	H2	N
23	-0.346016055	H2	N
24	-0.266599062	H2	N
25	0.021470056	H2	N
26	-0.058673431	H2	N
27	-0.134877629	H2	N
28	-0.135904145	H2	N
29	-0.060641272	H2	N
30	-0.208155959	H2	N
31	-0.207230528	H2	N
32	-0.133044458	H2	N
33	0.020169487	H2	N
34	-0.209040232	H2	N
35	-0.209361328	H2	N
36	-0.208573619	H2	N
37	-0.055173986	H2	N
38	-0.05879421	H2	N
39	-0.056383407	H2	N
40	-0.286230683	H2	N
1	-0.242527368	H3	N
2	-0.097908705	H3	N
3	0.041399618	H3	N
4	-0.100590887	H3	N
5	0.039302775	H3	N
6	0.117797199	H3	N
7	0.190567978	H3	N
8	0.047844664	H3	N
9	0.044395056	H3	N
10	0.036395998	H3	N
11	0.041348317	H3	N
12	0.117062856	H3	N
13	0.041326153	H3	N
14	-0.027911004	H3	N
15	0.414319179	H3	N
16	0.344557836	H3	N
17	0.336024008	H3	N
18	0.267156951	H3	N
19	0.263178203	H3	N
20	0.194984056	H3	N
21	0.424699969	H3	N
22	0.406374863	H3	N
23	0.273236287	H3	N
24	0.278588158	H3	N
25	0.39757279	H3	N
26	0.390514458	H3	N
27	0.389862933	H3	N
28	0.461190042	H3	N
29	0.46041613	H3	N
30	0.394221344	H3	N
31	0.175751812	H3	N
32	0.24572428	H3	N
33	0.394035294	H3	N
34	0.464285993	H3	N
35	0.316727192	H3	N
36	0.317674965	H3	N
37	0.39360984	H3	N
38	0.314671688	H3	N
39	0.392371057	H3	N
40	0.316805834	H3	N
