Cycles	Fluorescence	Sample	genotype
1	0.101902915	A1	N
2	0.01131948	A1	N
3	-0.073305418	A1	N
4	0.039961027	A1	N
5	0.009545111	A1	N
6	0.012479799	A1	N
7	-0.090362346	A1	N
8	0.017327827	A1	N
9	-0.140398684	A1	N
10	-0.119359345	A1	N
11	-0.191657666	A1	N
12	-0.194454202	A1	N
13	-0.216319193	A1	N
14	-0.218224822	A1	N
15	-0.431046751	A1	N
16	-0.458583394	A1	N
17	-0.374191343	A1	N
18	-0.350276027	A1	N
19	-0.506262554	A1	N
20	-0.475160988	A1	N
21	-0.502664689	A1	N
22	-0.556822664	A1	N
23	-0.550491296	A1	N
24	-0.661636785	A1	N
25	-0.606529111	A1	N
26	-0.627848353	A1	N
27	-0.717634204	A1	N
28	-0.659920845	A1	N
29	-0.732805472	A1	N
30	-0.818115528	A1	N
31	-0.84303508	A1	N
32	-0.8111886	A1	N
33	-0.814714513	A1	N
34	-0.914430795	A1	N
35	-0.918787286	A1	N
36	-0.917962172	A1	N
37	-0.8594014	A1	N
38	-0.888765011	A1	N
39	-0.918169115	A1	N
40	-0.72729251	A1	N
41	-0.429599148	A1	N
42	0.072185496	A1	N
43	0.845127218	A1	N
44	2.12834164	A1	N
45	3.596393679	A1	N
1	-0.1018647	A2	N
2	0.041072119	A2	N
3	-0.01373414	A2	N
4	0.093711968	A2	N
5	-0.011116022	A2	N
6	-0.109933924	A2	N
7	-0.106407963	A2	N
8	-0.232438579	A2	N
9	-0.177972735	A2	N
10	-0.233466312	A2	N
11	-0.277411901	A2	N
12	-0.305213781	A2	N
13	-0.376932498	A2	N
14	-0.302624269	A2	N
15	-0.429046888	A2	N
16	-0.379169533	A2	N
17	-0.349759457	A2	N
18	-0.428206174	A2	N
19	-0.500805453	A2	N
20	-0.446106133	A2	N
21	-0.52296383	A2	N
22	-0.574457934	A2	N
23	-0.619724392	A2	N
24	-0.547889876	A2	N
25	-0.648051379	A2	N
26	-0.61833842	A2	N
27	-0.678251752	A2	N
28	-0.725500374	A2	N
29	-0.719757976	A2	N
30	-0.750385086	A2	N
31	-0.774787902	A2	N
32	-0.719988581	A2	N
33	-0.799818457	A2	N
34	-0.844843406	A2	N
35	-0.874552528	A2	N
36	-0.874243926	A2	N
37	-0.844638216	A2	N
38	-0.923466836	A2	N
39	-0.799310935	A2	N
40	-0.694241304	A2	N
41	-0.563780538	A2	N
42	-0.136770259	A2	N
43	0.598783667	A2	N
44	1.794262303	A2	N
45	3.368984158	A2	N
1	-0.068621318	A3	S23
2	0.112873075	A3	S23
3	-0.063560163	A3	S23
4	0.017984959	A3	S23
5	-0.011156011	A3	S23
6	-0.056141861	A3	S23
7	-0.148598341	A3	S23
8	-0.196059194	A3	S23
9	-0.154192176	A3	S23
10	-0.282747159	A3	S23
11	-0.297514112	A3	S23
12	-0.301046573	A3	S23
13	-0.46524363	A3	S23
14	-0.394691933	A3	S23
15	-0.540375774	A3	S23
16	-0.541580842	A3	S23
17	-0.560037776	A3	S23
18	-0.514866457	A3	S23
19	-0.6803663	A3	S23
20	-0.601594169	A3	S23
21	-0.456676247	A3	S23
22	-0.433476881	A3	S23
23	-0.060054172	A3	S23
24	0.566642493	A3	S23
25	1.372431518	A3	S23
26	2.354510286	A3	S23
27	3.458133699	A3	S23
28	4.609682774	A3	S23
29	6.084011	A3	S23
30	7.41252964	A3	S23
31	8.950182664	A3	S23
32	10.54557991	A3	S23
33	11.97372936	A3	S23
34	13.30783317	A3	S23
35	14.44080728	A3	S23
36	15.5638255	A3	S23
37	16.60268835	A3	S23
38	17.32536437	A3	S23
39	18.21795249	A3	S23
40	18.52349405	A3	S23
41	19.04871016	A3	S23
42	19.35014306	A3	S23
43	19.69010987	A3	S23
44	19.77057226	A3	S23
45	19.91822263	A3	S23
1	0.167310876	A4	N
2	0.175794349	A4	N
3	0.074605915	A4	N
4	0.013256569	A4	N
5	-0.086639115	A4	N
6	-0.177017718	A4	N
7	-0.384247536	A4	N
8	-0.501025604	A4	N
9	-0.464349979	A4	N
10	-0.613494313	A4	N
11	-0.6974374	A4	N
12	-0.795594182	A4	N
13	-0.883413749	A4	N
14	-0.886032817	A4	N
15	-1.121682986	A4	N
16	-1.052234706	A4	N
17	-1.116638638	A4	N
18	-1.144031487	A4	N
19	-1.256840139	A4	N
20	-1.274255951	A4	N
21	-1.393550413	A4	N
22	-1.441946826	A4	N
23	-1.409837769	A4	N
24	-1.486935739	A4	N
25	-1.555505812	A4	N
26	-1.595745546	A4	N
27	-1.727353396	A4	N
28	-1.745251495	A4	N
29	-1.75969954	A4	N
30	-1.861673405	A4	N
31	-1.836138329	A4	N
32	-1.85305736	A4	N
33	-1.385869785	A4	N
34	-1.77813852	A4	N
35	-1.71368847	A4	N
36	-1.665635366	A4	N
37	-1.398910012	A4	N
38	-0.930605543	A4	N
39	-0.25007801	A4	N
40	0.937631084	A4	N
41	2.102482967	A4	N
42	3.346458282	A4	N
43	4.763267714	A4	N
44	6.303956759	A4	N
45	7.98317561	A4	N
1	0.128001287	A6	N
2	0.097078531	A6	N
3	-0.02138634	A6	N
4	-0.016409962	A6	N
5	-0.042225152	A6	N
6	-0.017057078	A6	N
7	-0.129187472	A6	N
8	-0.151403331	A6	N
9	-0.215425253	A6	N
10	-0.242427234	A6	N
11	-0.191032374	A6	N
12	-0.19306854	A6	N
13	-0.327285512	A6	N
14	-0.30574498	A6	N
15	-0.351531233	A6	N
16	-0.352205196	A6	N
17	-0.32582404	A6	N
18	-0.304931025	A6	N
19	-0.416933781	A6	N
20	-0.390553394	A6	N
21	-0.391247671	A6	N
22	-0.414866845	A6	N
23	-0.433057462	A6	N
24	-0.505356849	A6	N
25	-0.480990968	A6	N
26	-0.453974636	A6	N
27	-0.46131792	A6	N
28	-0.549840262	A6	N
29	-0.475564469	A6	N
30	-0.571451828	A6	N
31	-0.547175375	A6	N
32	-0.54316912	A6	N
33	-0.591780459	A6	N
34	-0.563438048	A6	N
35	-0.589788125	A6	N
36	-0.612168847	A6	N
37	-0.585386167	A6	N
38	-0.495667707	A6	N
39	-0.406090698	A6	N
40	-0.334324351	A6	N
41	-0.032504653	A6	N
42	0.46889727	A6	N
43	1.502656649	A6	N
44	2.953162759	A6	N
45	4.77017544	A6	N
1	0.04758573	A7	N
2	0.037619138	A7	N
3	0.033153914	A7	N
4	0.03948935	A7	N
5	-0.033381526	A7	N
6	-0.076880876	A7	N
7	-0.073222894	A7	N
8	-0.210914276	A7	N
9	-0.18772928	A7	N
10	-0.285168058	A7	N
11	-0.255100254	A7	N
12	-0.349946371	A7	N
13	-0.345508956	A7	N
14	-0.416468786	A7	N
15	-0.462489443	A7	N
16	-0.509492557	A7	N
17	-0.551303037	A7	N
18	-0.530843532	A7	N
19	-0.573451505	A7	N
20	-0.592269692	A7	N
21	-0.662367414	A7	N
22	-0.686301722	A7	N
23	-0.818903354	A7	N
24	-0.707711008	A7	N
25	-0.775290934	A7	N
26	-0.839642572	A7	N
27	-0.848892451	A7	N
28	-0.867876462	A7	N
29	-0.884504833	A7	N
30	-0.95882479	A7	N
31	-0.934297766	A7	N
32	-0.952634485	A7	N
33	-0.956044083	A7	N
34	-0.995887308	A7	N
35	-0.977042997	A7	N
36	-0.860861534	A7	N
37	-0.671159754	A7	N
38	-0.188630704	A7	N
39	0.593935966	A7	N
40	1.661544548	A7	N
41	2.776132106	A7	N
42	4.156295778	A7	N
43	5.564912434	A7	N
44	7.00072754	A7	N
45	8.503039937	A7	N
1	0.049755324	B8	S23
2	0.04639561	B8	S23
3	0.021844463	B8	S23
4	-0.068436028	B8	S23
5	-0.000347204	B8	S23
6	0.000543159	B8	S23
7	-0.021274056	B8	S23
8	-0.020940605	B8	S23
9	0.017476824	B8	S23
10	-0.122502597	B8	S23
11	-0.074068223	B8	S23
12	-0.051945577	B8	S23
13	-0.096496085	B8	S23
14	-0.028003063	B8	S23
15	-0.143108041	B8	S23
16	-0.12038823	B8	S23
17	-0.141958558	B8	S23
18	-0.050684549	B8	S23
19	-0.141652115	B8	S23
20	-0.140209204	B8	S23
21	-0.048214939	B8	S23
22	0.04375688	B8	S23
23	0.230553865	B8	S23
24	0.667220728	B8	S23
25	1.221748361	B8	S23
26	2.124522634	B8	S23
27	3.226198601	B8	S23
28	4.42892277	B8	S23
29	5.842854104	B8	S23
30	7.384196676	B8	S23
31	9.140207971	B8	S23
32	10.99428999	B8	S23
33	12.81297602	B8	S23
34	14.55689745	B8	S23
35	16.35015171	B8	S23
36	17.80671091	B8	S23
37	19.20409679	B8	S23
38	20.51476858	B8	S23
39	21.45512667	B8	S23
40	22.45919298	B8	S23
41	23.18652893	B8	S23
42	23.86729614	B8	S23
43	24.35134956	B8	S23
44	24.70361741	B8	S23
45	25.07375154	B8	S23
1	-0.075154496	C1	S23
2	0.021072328	C1	S23
3	-0.085489066	C1	S23
4	-0.003325543	C1	S23
5	0.019908782	C1	S23
6	0.047833498	C1	S23
7	-0.0270645	C1	S23
8	-0.026322085	C1	S23
9	-0.120672338	C1	S23
10	-0.176055663	C1	S23
11	-0.222445213	C1	S23
12	-0.172752505	C1	S23
13	-0.143666385	C1	S23
14	-0.196591461	C1	S23
15	-0.273925107	C1	S23
16	-0.300337692	C1	S23
17	-0.245573768	C1	S23
18	-0.299073839	C1	S23
19	-0.296428582	C1	S23
20	-0.293305242	C1	S23
21	-0.319758133	C1	S23
22	-0.320412213	C1	S23
23	-0.238517182	C1	S23
24	-0.190112493	C1	S23
25	-0.00808357	C1	S23
26	0.460980814	C1	S23
27	1.124635845	C1	S23
28	2.110106163	C1	S23
29	3.09917409	C1	S23
30	4.333859502	C1	S23
31	5.602281203	C1	S23
32	7.057082076	C1	S23
33	8.551266235	C1	S23
34	10.08861576	C1	S23
35	11.63235771	C1	S23
36	13.05624958	C1	S23
37	14.46416094	C1	S23
38	15.64818616	C1	S23
39	16.80580585	C1	S23
40	17.69583338	C1	S23
41	18.56062285	C1	S23
42	19.09209208	C1	S23
43	19.60890571	C1	S23
44	20.05527887	C1	S23
45	20.31554414	C1	S23
1	-0.01569686	C2	S23
2	0.049544756	C2	S23
3	-0.003235682	C2	S23
4	0.00214488	C2	S23
5	-0.00084276	C2	S23
6	-0.047611194	C2	S23
7	-0.06900799	C2	S23
8	-0.092705045	C2	S23
9	-0.186056962	C2	S23
10	-0.165853079	C2	S23
11	-0.28250577	C2	S23
12	-0.309302377	C2	S23
13	-0.280894338	C2	S23
14	-0.306972122	C2	S23
15	-0.306722091	C2	S23
16	-0.356532077	C2	S23
17	-0.377425076	C2	S23
18	-0.330451576	C2	S23
19	-0.425636409	C2	S23
20	-0.421972551	C2	S23
21	-0.299719762	C2	S23
22	-0.300506045	C2	S23
23	-0.123190953	C2	S23
24	0.192478867	C2	S23
25	0.734730463	C2	S23
26	1.600351581	C2	S23
27	2.646595449	C2	S23
28	3.757352403	C2	S23
29	4.971028516	C2	S23
30	6.364647902	C2	S23
31	7.8421855	C2	S23
32	9.424843449	C2	S23
33	10.99191558	C2	S23
34	12.43253903	C2	S23
35	13.92332725	C2	S23
36	15.204069	C2	S23
37	16.27449457	C2	S23
38	17.32556343	C2	S23
39	18.15466588	C2	S23
40	18.83045151	C2	S23
41	19.53144592	C2	S23
42	19.9123855	C2	S23
43	20.23175528	C2	S23
44	20.53415777	C2	S23
45	20.83140357	C2	S23
1	-0.121718704	C3	N
2	0.080853668	C3	N
3	-0.088781153	C3	N
4	0.059182819	C3	N
5	-0.038819171	C3	N
6	-0.012436163	C3	N
7	-0.032294838	C3	N
8	-0.125858419	C3	N
9	-0.125338961	C3	N
10	-0.22481243	C3	N
11	-0.146927131	C3	N
12	-0.220362403	C3	N
13	-0.286601435	C3	N
14	-0.123330453	C3	N
15	-0.382502563	C3	N
16	-0.359776657	C3	N
17	-0.331797372	C3	N
18	-0.35799419	C3	N
19	-0.472293463	C3	N
20	-0.397216793	C3	N
21	-0.492453729	C3	N
22	-0.469709337	C3	N
23	-0.581797212	C3	N
24	-0.538925343	C3	N
25	-0.513823761	C3	N
26	-0.650720718	C3	N
27	-0.566059448	C3	N
28	-0.656817245	C3	N
29	-0.721616288	C3	N
30	-0.656629278	C3	N
31	-0.655766992	C3	N
32	-0.698865694	C3	N
33	-0.726830079	C3	N
34	-0.839279459	C3	N
35	-0.820804422	C3	N
36	-0.915410104	C3	N
37	-0.864157096	C3	N
38	-0.914942432	C3	N
39	-0.823957778	C3	N
40	-0.844525872	C3	N
41	-0.888790651	C3	N
42	-0.894127918	C3	N
43	-0.753628287	C3	N
44	-0.516275573	C3	N
45	-0.020504337	C3	N
